#  ################################Cooling Rate in erg/cm^3/sec, calculated using APEC##################################
#  logT(K)   A = 0.785   A = 0.785   
   4.00000  -23.18122  -23.18122  
   4.01000  -23.18122  -23.18122  
   4.02000  -23.18122  -23.18122  
   4.03000  -23.18122  -23.18122  
   4.04000  -23.18122  -23.18122  
   4.05000  -23.18122  -23.18122  
   4.06000  -23.18122  -23.18122  
   4.07000  -23.18122  -23.18122  
   4.08000  -23.18122  -23.18122  
   4.09000  -23.18122  -23.18122  
   4.10000  -23.18122  -23.18122  
   4.11000  -23.18122  -23.18122  
   4.12000  -23.18122  -23.18122  
   4.13000  -23.18122  -23.18122  
   4.14000  -23.18122  -23.18122  
   4.15000  -23.18122  -23.18122  
   4.16000  -23.18122  -23.18122  
   4.17000  -23.18122  -23.18122  
   4.18000  -23.18122  -23.18122  
   4.19000  -23.18122  -23.18122  
   4.20000  -23.18122  -23.18122  
   4.21000  -23.18122  -23.18122  
   4.22000  -23.18122  -23.18122  
   4.23000  -23.18122  -23.18122  
   4.24000  -23.18122  -23.18122  
   4.25000  -23.18122  -23.18122  
   4.26000  -23.18122  -23.18122  
   4.27000  -23.18122  -23.18122  
   4.28000  -23.18122  -23.18122  
   4.29000  -23.18122  -23.18122  
   4.30000  -23.18122  -23.18122  
   4.31000  -23.18122  -23.18122  
   4.32000  -23.18122  -23.18122  
   4.33000  -23.18122  -23.18122  
   4.34000  -23.18122  -23.18122  
   4.35000  -23.16302  -23.16302  
   4.36000  -23.14482  -23.14482  
   4.37000  -23.12662  -23.12662  
   4.38000  -23.10842  -23.10842  
   4.39000  -23.09022  -23.09022  
   4.40000  -23.07202  -23.07202  
   4.41000  -23.05382  -23.05382  
   4.42000  -23.03562  -23.03562  
   4.43000  -23.01742  -23.01742  
   4.44000  -22.99922  -22.99922  
   4.45000  -22.98102  -22.98102  
   4.46000  -22.96282  -22.96282  
   4.47000  -22.94462  -22.94462  
   4.48000  -22.92642  -22.92642  
   4.49000  -22.90822  -22.90822  
   4.50000  -22.89002  -22.89002  
   4.51000  -22.87182  -22.87182  
   4.52000  -22.85362  -22.85362  
   4.53000  -22.83542  -22.83542  
   4.54000  -22.81722  -22.81722  
   4.55000  -22.79902  -22.79902  
   4.56000  -22.78082  -22.78082  
   4.57000  -22.76262  -22.76262  
   4.58000  -22.74442  -22.74442  
   4.59000  -22.72622  -22.72622  
   4.60000  -22.70802  -22.70802  
   4.61000  -22.68982  -22.68982  
   4.62000  -22.67162  -22.67162  
   4.63000  -22.65342  -22.65342  
   4.64000  -22.63522  -22.63522  
   4.65000  -22.61702  -22.61702  
   4.66000  -22.59882  -22.59882  
   4.67000  -22.58062  -22.58062  
   4.68000  -22.56242  -22.56242  
   4.69000  -22.54422  -22.54422  
   4.70000  -22.52602  -22.52602  
   4.71000  -22.50782  -22.50782  
   4.72000  -22.48962  -22.48962  
   4.73000  -22.47142  -22.47142  
   4.74000  -22.45322  -22.45322  
   4.75000  -22.43502  -22.43502  
   4.76000  -22.41682  -22.41682  
   4.77000  -22.39862  -22.39862  
   4.78000  -22.38042  -22.38042  
   4.79000  -22.36222  -22.36222  
   4.80000  -22.34402  -22.34402  
   4.81000  -22.32582  -22.32582  
   4.82000  -22.30762  -22.30762  
   4.83000  -22.28942  -22.28942  
   4.84000  -22.27122  -22.27122  
   4.85000  -22.25302  -22.25302  
   4.86000  -22.23482  -22.23482  
   4.87000  -22.21662  -22.21662  
   4.88000  -22.19842  -22.19842  
   4.89000  -22.18022  -22.18022  
   4.90000  -22.16202  -22.16202  
   4.91000  -22.14382  -22.14382  
   4.92000  -22.12562  -22.12562  
   4.93000  -22.10742  -22.10742  
   4.94000  -22.08922  -22.08922  
   4.95000  -22.07102  -22.07102  
   4.96000  -22.05282  -22.05282  
   4.97000  -22.03462  -22.03462  
   4.98000  -22.01642  -22.01642  
   4.99000  -21.99822  -21.99822  
   5.00000  -21.98002  -21.98002  
   5.01000  -21.96182  -21.96182  
   5.02000  -21.94362  -21.94362  
   5.03000  -21.92542  -21.92542  
   5.04000  -21.90722  -21.90722  
   5.05000  -21.88902  -21.88902  
   5.06000  -21.87082  -21.87082  
   5.07000  -21.85262  -21.85262  
   5.08000  -21.83442  -21.83442  
   5.09000  -21.81622  -21.81622  
   5.10000  -21.79802  -21.79802  
   5.11000  -21.77982  -21.77982  
   5.12000  -21.76162  -21.76162  
   5.13000  -21.74342  -21.74342  
   5.14000  -21.72522  -21.72522  
   5.15000  -21.70702  -21.70702  
   5.16000  -21.68882  -21.68882  
   5.17000  -21.67062  -21.67062  
   5.18000  -21.65242  -21.65242  
   5.19000  -21.63422  -21.63422  
   5.20000  -21.61602  -21.61602  
   5.21000  -21.59782  -21.59782  
   5.22000  -21.57962  -21.57962  
   5.23000  -21.56142  -21.56142  
   5.24000  -21.54322  -21.54322  
   5.25000  -21.52502  -21.52502  
   5.26000  -21.50682  -21.50682  
   5.27000  -21.48862  -21.48862  
   5.28000  -21.47042  -21.47042  
   5.29000  -21.45222  -21.45222  
   5.30000  -21.43402  -21.43402  
   5.31000  -21.41964  -21.41964  
   5.32000  -21.41782  -21.41782  
   5.33000  -21.41603  -21.41603  
   5.34000  -21.41413  -21.41413  
   5.35000  -21.42039  -21.42039  
   5.36000  -21.42688  -21.42688  
   5.37000  -21.43365  -21.43365  
   5.38000  -21.44072  -21.44072  
   5.39000  -21.44810  -21.44810  
   5.40000  -21.45570  -21.45570  
   5.41000  -21.46369  -21.46369  
   5.42000  -21.47199  -21.47199  
   5.43000  -21.48061  -21.48061  
   5.44000  -21.48963  -21.48963  
   5.45000  -21.49010  -21.49010  
   5.46000  -21.49056  -21.49056  
   5.47000  -21.49105  -21.49105  
   5.48000  -21.49152  -21.49152  
   5.49000  -21.49201  -21.49201  
   5.50000  -21.49250  -21.49250  
   5.51000  -21.49307  -21.49307  
   5.52000  -21.49356  -21.49356  
   5.53000  -21.49415  -21.49415  
   5.54000  -21.49465  -21.49465  
   5.55000  -21.49369  -21.49369  
   5.56000  -21.49272  -21.49272  
   5.57000  -21.49168  -21.49168  
   5.58000  -21.49063  -21.49063  
   5.59000  -21.48957  -21.48957  
   5.60000  -21.48851  -21.48851  
   5.61000  -21.48746  -21.48746  
   5.62000  -21.48632  -21.48632  
   5.63000  -21.48518  -21.48518  
   5.64000  -21.48402  -21.48402  
   5.65000  -21.48574  -21.48574  
   5.66000  -21.48745  -21.48745  
   5.67000  -21.48918  -21.48918  
   5.68000  -21.49099  -21.49099  
   5.69000  -21.49282  -21.49282  
   5.70000  -21.49475  -21.49475  
   5.71000  -21.49677  -21.49677  
   5.72000  -21.49878  -21.49878  
   5.73000  -21.50091  -21.50091  
   5.74000  -21.50304  -21.50304  
   5.75000  -21.51994  -21.51994  
   5.76000  -21.53803  -21.53803  
   5.77000  -21.55733  -21.55733  
   5.78000  -21.57801  -21.57801  
   5.79000  -21.60023  -21.60023  
   5.80000  -21.62421  -21.62421  
   5.81000  -21.65021  -21.65021  
   5.82000  -21.67851  -21.67851  
   5.83000  -21.70958  -21.70958  
   5.84000  -21.74378  -21.74378  
   5.85000  -21.76157  -21.76157  
   5.86000  -21.78045  -21.78045  
   5.87000  -21.80065  -21.80065  
   5.88000  -21.82244  -21.82244  
   5.89000  -21.84582  -21.84582  
   5.90000  -21.87121  -21.87121  
   5.91000  -21.89878  -21.89878  
   5.92000  -21.92886  -21.92886  
   5.93000  -21.96214  -21.96214  
   5.94000  -21.99891  -21.99891  
   5.95000  -22.00432  -22.00432  
   5.96000  -22.00992  -22.00992  
   5.97000  -22.01572  -22.01572  
   5.98000  -22.02182  -22.02182  
   5.99000  -22.02804  -22.02804  
   6.00000  -22.03454  -22.03454  
   6.01000  -22.04125  -22.04125  
   6.02000  -22.04826  -22.04826  
   6.03000  -22.05556  -22.05556  
   6.04000  -22.06316  -22.06316  
   6.05000  -22.06956  -22.06956  
   6.06000  -22.07626  -22.07626  
   6.07000  -22.08316  -22.08316  
   6.08000  -22.09036  -22.09036  
   6.09000  -22.09778  -22.09778  
   6.10000  -22.10558  -22.10558  
   6.11000  -22.11376  -22.11376  
   6.12000  -22.12218  -22.12218  
   6.13000  -22.13106  -22.13106  
   6.14000  -22.14028  -22.14028  
   6.15000  -22.14466  -22.14466  
   6.16000  -22.14918  -22.14918  
   6.17000  -22.15378  -22.15378  
   6.18000  -22.15866  -22.15866  
   6.19000  -22.16366  -22.16366  
   6.20000  -22.16878  -22.16878  
   6.21000  -22.17418  -22.17418  
   6.22000  -22.17968  -22.17968  
   6.23000  -22.18548  -22.18548  
   6.24000  -22.19138  -22.19138  
   6.25000  -22.19128  -22.19128  
   6.26000  -22.19118  -22.19118  
   6.27000  -22.19099  -22.19099  
   6.28000  -22.19089  -22.19089  
   6.29000  -22.19079  -22.19079  
   6.30000  -22.19061  -22.19061  
   6.31000  -22.19041  -22.19041  
   6.32000  -22.19031  -22.19031  
   6.33000  -22.19012  -22.19012  
   6.34000  -22.19002  -22.19002  
   6.35000  -22.19132  -22.19132  
   6.36000  -22.19262  -22.19262  
   6.37000  -22.19402  -22.19402  
   6.38000  -22.19552  -22.19552  
   6.39000  -22.19692  -22.19692  
   6.40000  -22.19851  -22.19851  
   6.41000  -22.20002  -22.20002  
   6.42000  -22.20162  -22.20162  
   6.43000  -22.20322  -22.20322  
   6.44000  -22.20492  -22.20492  
   6.45000  -22.20792  -22.20792  
   6.46000  -22.21101  -22.21101  
   6.47000  -22.21421  -22.21421  
   6.48000  -22.21751  -22.21751  
   6.49000  -22.22089  -22.22089  
   6.50000  -22.22439  -22.22439  
   6.51000  -22.22808  -22.22808  
   6.52000  -22.23178  -22.23178  
   6.53000  -22.23558  -22.23558  
   6.54000  -22.23956  -22.23956  
   6.55000  -22.24815  -22.24815  
   6.56000  -22.25714  -22.25714  
   6.57000  -22.26651  -22.26651  
   6.58000  -22.27629  -22.27629  
   6.59000  -22.28658  -22.28658  
   6.60000  -22.29726  -22.29726  
   6.61000  -22.30853  -22.30853  
   6.62000  -22.32042  -22.32042  
   6.63000  -22.33289  -22.33289  
   6.64000  -22.34606  -22.34606  
   6.65000  -22.35763  -22.35763  
   6.66000  -22.36980  -22.36980  
   6.67000  -22.38266  -22.38266  
   6.68000  -22.39613  -22.39613  
   6.69000  -22.41040  -22.41040  
   6.70000  -22.42555  -22.42555  
   6.71000  -22.44159  -22.44159  
   6.72000  -22.45865  -22.45865  
   6.73000  -22.47679  -22.47679  
   6.74000  -22.49623  -22.49623  
   6.75000  -22.50619  -22.50619  
   6.76000  -22.51666  -22.51666  
   6.77000  -22.52770  -22.52770  
   6.78000  -22.53926  -22.53926  
   6.79000  -22.55131  -22.55131  
   6.80000  -22.56415  -22.56415  
   6.81000  -22.57759  -22.57759  
   6.82000  -22.59182  -22.59182  
   6.83000  -22.60686  -22.60686  
   6.84000  -22.62287  -22.62287  
   6.85000  -22.62854  -22.62854  
   6.86000  -22.63440  -22.63440  
   6.87000  -22.64054  -22.64054  
   6.88000  -22.64681  -22.64681  
   6.89000  -22.65337  -22.65337  
   6.90000  -22.66021  -22.66021  
   6.91000  -22.66735  -22.66735  
   6.92000  -22.67471  -22.67471  
   6.93000  -22.68235  -22.68235  
   6.94000  -22.69037  -22.69037  
   6.95000  -22.69166  -22.69166  
   6.96000  -22.69303  -22.69303  
   6.97000  -22.69440  -22.69440  
   6.98000  -22.69577  -22.69577  
   6.99000  -22.69724  -22.69724  
   7.00000  -22.69870  -22.69870  
   7.01000  -22.70018  -22.70018  
   7.02000  -22.70174  -22.70174  
   7.03000  -22.70339  -22.70339  
   7.04000  -22.70498  -22.70498  
   7.05000  -22.70387  -22.70387  
   7.06000  -22.70274  -22.70274  
   7.07000  -22.70162  -22.70162  
   7.08000  -22.70041  -22.70041  
   7.09000  -22.69919  -22.69919  
   7.10000  -22.69796  -22.69796  
   7.11000  -22.69666  -22.69666  
   7.12000  -22.69543  -22.69543  
   7.13000  -22.69410  -22.69410  
   7.14000  -22.69270  -22.69270  
   7.15000  -22.69157  -22.69157  
   7.16000  -22.69036  -22.69036  
   7.17000  -22.68904  -22.68904  
   7.18000  -22.68783  -22.68783  
   7.19000  -22.68652  -22.68652  
   7.20000  -22.68520  -22.68520  
   7.21000  -22.68387  -22.68387  
   7.22000  -22.68246  -22.68246  
   7.23000  -22.68104  -22.68104  
   7.24000  -22.67963  -22.67963  
   7.25000  -22.68018  -22.68018  
   7.26000  -22.68075  -22.68075  
   7.27000  -22.68132  -22.68132  
   7.28000  -22.68189  -22.68189  
   7.29000  -22.68255  -22.68255  
   7.30000  -22.68312  -22.68312  
   7.31000  -22.68378  -22.68378  
   7.32000  -22.68445  -22.68445  
   7.33000  -22.68510  -22.68510  
   7.34000  -22.68577  -22.68577  
   7.35000  -22.68930  -22.68930  
   7.36000  -22.69284  -22.69284  
   7.37000  -22.69658  -22.69658  
   7.38000  -22.70041  -22.70041  
   7.39000  -22.70435  -22.70435  
   7.40000  -22.70846  -22.70846  
   7.41000  -22.71260  -22.71260  
   7.42000  -22.71702  -22.71702  
   7.43000  -22.72153  -22.72153  
   7.44000  -22.72615  -22.72615  
   7.45000  -22.73117  -22.73117  
   7.46000  -22.73628  -22.73628  
   7.47000  -22.74167  -22.74167  
   7.48000  -22.74719  -22.74719  
   7.49000  -22.75288  -22.75288  
   7.50000  -22.75887  -22.75887  
   7.51000  -22.76505  -22.76505  
   7.52000  -22.77143  -22.77143  
   7.53000  -22.77810  -22.77810  
   7.54000  -22.78498  -22.78498  
   7.55000  -22.78758  -22.78758  
   7.56000  -22.79020  -22.79020  
   7.57000  -22.79283  -22.79283  
   7.58000  -22.79563  -22.79563  
   7.59000  -22.79845  -22.79845  
   7.60000  -22.80145  -22.80145  
   7.61000  -22.80445  -22.80445  
   7.62000  -22.80755  -22.80755  
   7.63000  -22.81084  -22.81084  
   7.64000  -22.81413  -22.81413  
   7.65000  -22.81378  -22.81378  
   7.66000  -22.81342  -22.81342  
   7.67000  -22.81306  -22.81306  
   7.68000  -22.81271  -22.81271  
   7.69000  -22.81235  -22.81235  
   7.70000  -22.81189  -22.81189  
   7.71000  -22.81153  -22.81153  
   7.72000  -22.81116  -22.81116  
   7.73000  -22.81070  -22.81070  
   7.74000  -22.81024  -22.81024  
   7.75000  -22.80821  -22.80821  
   7.76000  -22.80616  -22.80616  
   7.77000  -22.80403  -22.80403  
   7.78000  -22.80189  -22.80189  
   7.79000  -22.79975  -22.79975  
   7.80000  -22.79752  -22.79752  
   7.81000  -22.79519  -22.79519  
   7.82000  -22.79294  -22.79294  
   7.83000  -22.79060  -22.79060  
   7.84000  -22.78817  -22.78817  
   7.85000  -22.78516  -22.78516  
   7.86000  -22.78204  -22.78204  
   7.87000  -22.77891  -22.77891  
   7.88000  -22.77578  -22.77578  
   7.89000  -22.77255  -22.77255  
   7.90000  -22.76924  -22.76924  
   7.91000  -22.76592  -22.76592  
   7.92000  -22.76259  -22.76259  
   7.93000  -22.75908  -22.75908  
   7.94000  -22.75565  -22.75565  
   7.95000  -22.75203  -22.75203  
   7.96000  -22.74842  -22.74842  
   7.97000  -22.74471  -22.74471  
   7.98000  -22.74099  -22.74099  
   7.99000  -22.73718  -22.73718  
   8.00000  -22.73336  -22.73336  
   8.01000  -22.72945  -22.72945  
   8.02000  -22.72543  -22.72543  
   8.03000  -22.72142  -22.72142  
   8.04000  -22.71740  -22.71740  
   8.05000  -22.71350  -22.71350  
   8.06000  -22.70959  -22.70959  
   8.07000  -22.70557  -22.70557  
   8.08000  -22.70156  -22.70156  
   8.09000  -22.69746  -22.69746  
   8.10000  -22.69334  -22.69334  
   8.11000  -22.68913  -22.68913  
   8.12000  -22.68483  -22.68483  
   8.13000  -22.68051  -22.68051  
   8.14000  -22.67620  -22.67620  
   8.15000  -22.67220  -22.67220  
   8.16000  -22.66818  -22.66818  
   8.17000  -22.66408  -22.66408  
   8.18000  -22.65997  -22.65997  
   8.19000  -22.65577  -22.65577  
   8.20000  -22.65156  -22.65156  
   8.21000  -22.64724  -22.64724  
   8.22000  -22.64293  -22.64293  
   8.23000  -22.63853  -22.63853  
   8.24000  -22.63401  -22.63401  
   8.25000  -22.63001  -22.63001  
   8.26000  -22.62600  -22.62600  
   8.27000  -22.62188  -22.62188  
   8.28000  -22.61768  -22.61768  
   8.29000  -22.61347  -22.61347  
   8.30000  -22.60917  -22.60917  
   8.31000  -22.60485  -22.60485  
   8.32000  -22.60045  -22.60045  
   8.33000  -22.59604  -22.59604  
   8.34000  -22.59152  -22.59152  
   8.35000  -22.58762  -22.58762  
   8.36000  -22.58361  -22.58361  
   8.37000  -22.57961  -22.57961  
   8.38000  -22.57549  -22.57549  
   8.39000  -22.57129  -22.57129  
   8.40000  -22.56718  -22.56718  
   8.41000  -22.56288  -22.56288  
   8.42000  -22.55856  -22.55856  
   8.43000  -22.55416  -22.55416  
   8.44000  -22.54975  -22.54975  
   8.45000  -22.54683  -22.54683  
   8.46000  -22.54383  -22.54383  
   8.47000  -22.54073  -22.54073  
   8.48000  -22.53763  -22.53763  
   8.49000  -22.53452  -22.53452  
   8.50000  -22.53132  -22.53132  
   8.51000  -22.52802  -22.52802  
   8.52000  -22.52471  -22.52471  
   8.53000  -22.52139  -22.52139  
   8.54000  -22.51799  -22.51799  
   8.55000  -22.51428  -22.51428  
   8.56000  -22.51048  -22.51048  
   8.57000  -22.50666  -22.50666  
   8.58000  -22.50276  -22.50276  
   8.59000  -22.49876  -22.49876  
   8.60000  -22.49476  -22.49476  
   8.61000  -22.49075  -22.49075  
   8.62000  -22.48665  -22.48665  
   8.63000  -22.48245  -22.48245  
   8.64000  -22.47823  -22.47823  
   8.65000  -22.47492  -22.47492  
   8.66000  -22.47143  -22.47143  
   8.67000  -22.46802  -22.46802  
   8.68000  -22.46450  -22.46450  
   8.69000  -22.46090  -22.46090  
   8.70000  -22.45730  -22.45730  
   8.71000  -22.45360  -22.45360  
   8.72000  -22.44989  -22.44989  
   8.73000  -22.44617  -22.44617  
   8.74000  -22.44229  -22.44229  
   8.75000  -22.43939  -22.43939  
   8.76000  -22.43647  -22.43647  
   8.77000  -22.43347  -22.43347  
   8.78000  -22.43046  -22.43046  
   8.79000  -22.42736  -22.42736  
   8.80000  -22.42426  -22.42426  
   8.81000  -22.42106  -22.42106  
   8.82000  -22.41784  -22.41784  
   8.83000  -22.41463  -22.41463  
   8.84000  -22.41124  -22.41124  
   8.85000  -22.40893  -22.40893  
   8.86000  -22.40653  -22.40653  
   8.87000  -22.40413  -22.40413  
   8.88000  -22.40171  -22.40171  
   8.89000  -22.39921  -22.39921  
   8.90000  -22.39663  -22.39663  
   8.91000  -22.39411  -22.39411  
   8.92000  -22.39141  -22.39141  
   8.93000  -22.38880  -22.38880  
   8.94000  -22.38601  -22.38601  
   8.95000  -22.38430  -22.38430  
   8.96000  -22.38250  -22.38250  
   8.97000  -22.38070  -22.38070  
