#  ################################Cooling Rate in erg/cm^3/sec, calculated using APEC##################################
#  logT(K)   A = 0.0   A = 0.1   A = 0.2   A = 0.3   A = 0.4   A = 0.5   A = 0.6   A = 0.7   A = 0.8   A = 0.9   A = 1.0
   4.00000  -23.6185  -23.5317  -23.4594  -23.3974  -23.3431  -23.2949  -23.2515  -23.2121  -23.1759  -23.1425  -23.1116  
   4.01000  -23.6003  -23.5135  -23.4412  -23.3792  -23.3249  -23.2767  -23.2333  -23.1939  -23.1577  -23.1243  -23.0934  
   4.02000  -23.5821  -23.4953  -23.4230  -23.3610  -23.3067  -23.2585  -23.2151  -23.1757  -23.1395  -23.1061  -23.0752  
   4.03000  -23.5639  -23.4771  -23.4048  -23.3428  -23.2885  -23.2403  -23.1969  -23.1575  -23.1213  -23.0879  -23.0570  
   4.04000  -23.5457  -23.4589  -23.3866  -23.3246  -23.2703  -23.2221  -23.1787  -23.1393  -23.1031  -23.0697  -23.0388  
   4.05000  -23.5275  -23.4407  -23.3684  -23.3064  -23.2521  -23.2039  -23.1605  -23.1211  -23.0849  -23.0515  -23.0206  
   4.06000  -23.5093  -23.4225  -23.3502  -23.2882  -23.2339  -23.1857  -23.1423  -23.1029  -23.0667  -23.0333  -23.0024  
   4.07000  -23.4911  -23.4043  -23.3320  -23.2700  -23.2157  -23.1675  -23.1241  -23.0847  -23.0485  -23.0151  -22.9842  
   4.08000  -23.4729  -23.3861  -23.3138  -23.2518  -23.1975  -23.1493  -23.1059  -23.0665  -23.0303  -22.9969  -22.9660  
   4.09000  -23.4547  -23.3679  -23.2956  -23.2336  -23.1793  -23.1311  -23.0877  -23.0483  -23.0121  -22.9787  -22.9478  
   4.10000  -23.4365  -23.3497  -23.2774  -23.2154  -23.1611  -23.1129  -23.0695  -23.0301  -22.9939  -22.9605  -22.9296  
   4.11000  -23.4183  -23.3315  -23.2592  -23.1972  -23.1429  -23.0947  -23.0513  -23.0119  -22.9757  -22.9423  -22.9114  
   4.12000  -23.4001  -23.3133  -23.2410  -23.1790  -23.1247  -23.0765  -23.0331  -22.9937  -22.9575  -22.9241  -22.8932  
   4.13000  -23.3819  -23.2951  -23.2228  -23.1608  -23.1065  -23.0583  -23.0149  -22.9755  -22.9393  -22.9059  -22.8750  
   4.14000  -23.3637  -23.2769  -23.2046  -23.1426  -23.0883  -23.0401  -22.9967  -22.9573  -22.9211  -22.8877  -22.8568  
   4.15000  -23.3455  -23.2587  -23.1864  -23.1244  -23.0701  -23.0219  -22.9785  -22.9391  -22.9029  -22.8695  -22.8386  
   4.16000  -23.3273  -23.2405  -23.1682  -23.1062  -23.0519  -23.0037  -22.9603  -22.9209  -22.8847  -22.8513  -22.8204  
   4.17000  -23.3091  -23.2223  -23.1500  -23.0880  -23.0337  -22.9855  -22.9421  -22.9027  -22.8665  -22.8331  -22.8022  
   4.18000  -23.2909  -23.2041  -23.1318  -23.0698  -23.0155  -22.9673  -22.9239  -22.8845  -22.8483  -22.8149  -22.7840  
   4.19000  -23.2727  -23.1859  -23.1136  -23.0516  -22.9973  -22.9491  -22.9057  -22.8663  -22.8301  -22.7967  -22.7658  
   4.20000  -23.2545  -23.1677  -23.0954  -23.0334  -22.9791  -22.9309  -22.8875  -22.8481  -22.8119  -22.7785  -22.7476  
   4.21000  -23.2363  -23.1495  -23.0772  -23.0152  -22.9609  -22.9127  -22.8693  -22.8299  -22.7937  -22.7603  -22.7294  
   4.22000  -23.2181  -23.1313  -23.0590  -22.9970  -22.9427  -22.8945  -22.8511  -22.8117  -22.7755  -22.7421  -22.7112  
   4.23000  -23.1999  -23.1131  -23.0408  -22.9788  -22.9245  -22.8763  -22.8329  -22.7935  -22.7573  -22.7239  -22.6930  
   4.24000  -23.1817  -23.0949  -23.0226  -22.9606  -22.9063  -22.8581  -22.8147  -22.7753  -22.7391  -22.7057  -22.6748  
   4.25000  -23.1635  -23.0767  -23.0044  -22.9424  -22.8881  -22.8399  -22.7965  -22.7571  -22.7209  -22.6875  -22.6566  
   4.26000  -23.1453  -23.0585  -22.9862  -22.9242  -22.8699  -22.8217  -22.7783  -22.7389  -22.7027  -22.6693  -22.6384  
   4.27000  -23.1271  -23.0403  -22.9680  -22.9060  -22.8517  -22.8035  -22.7601  -22.7207  -22.6845  -22.6511  -22.6202  
   4.28000  -23.1089  -23.0221  -22.9498  -22.8878  -22.8335  -22.7853  -22.7419  -22.7025  -22.6663  -22.6329  -22.6020  
   4.29000  -23.0907  -23.0039  -22.9316  -22.8696  -22.8153  -22.7671  -22.7237  -22.6843  -22.6481  -22.6147  -22.5838  
   4.30000  -23.0725  -22.9857  -22.9134  -22.8514  -22.7971  -22.7489  -22.7055  -22.6661  -22.6299  -22.5965  -22.5656  
   4.31000  -23.0543  -22.9675  -22.8952  -22.8332  -22.7789  -22.7307  -22.6873  -22.6479  -22.6117  -22.5783  -22.5474  
   4.32000  -23.0361  -22.9493  -22.8770  -22.8150  -22.7607  -22.7125  -22.6691  -22.6297  -22.5935  -22.5601  -22.5292  
   4.33000  -23.0179  -22.9311  -22.8588  -22.7968  -22.7425  -22.6943  -22.6509  -22.6115  -22.5753  -22.5419  -22.5110  
   4.34000  -22.9997  -22.9129  -22.8406  -22.7786  -22.7243  -22.6761  -22.6327  -22.5933  -22.5571  -22.5237  -22.4928  
   4.35000  -22.9815  -22.8947  -22.8224  -22.7604  -22.7061  -22.6579  -22.6145  -22.5751  -22.5389  -22.5055  -22.4746  
   4.36000  -22.9633  -22.8765  -22.8042  -22.7422  -22.6879  -22.6397  -22.5963  -22.5569  -22.5207  -22.4873  -22.4564  
   4.37000  -22.9451  -22.8583  -22.7860  -22.7240  -22.6697  -22.6215  -22.5781  -22.5387  -22.5025  -22.4691  -22.4382  
   4.38000  -22.9269  -22.8401  -22.7678  -22.7058  -22.6515  -22.6033  -22.5599  -22.5205  -22.4843  -22.4509  -22.4200  
   4.39000  -22.9087  -22.8219  -22.7496  -22.6876  -22.6333  -22.5851  -22.5417  -22.5023  -22.4661  -22.4327  -22.4018  
   4.40000  -22.8905  -22.8037  -22.7314  -22.6694  -22.6151  -22.5669  -22.5235  -22.4841  -22.4479  -22.4145  -22.3836  
   4.41000  -22.8723  -22.7855  -22.7132  -22.6512  -22.5969  -22.5487  -22.5053  -22.4659  -22.4297  -22.3963  -22.3654  
   4.42000  -22.8541  -22.7673  -22.6950  -22.6330  -22.5787  -22.5305  -22.4871  -22.4477  -22.4115  -22.3781  -22.3472  
   4.43000  -22.8359  -22.7491  -22.6768  -22.6148  -22.5605  -22.5123  -22.4689  -22.4295  -22.3933  -22.3599  -22.3290  
   4.44000  -22.8177  -22.7309  -22.6586  -22.5966  -22.5423  -22.4941  -22.4507  -22.4113  -22.3751  -22.3417  -22.3108  
   4.45000  -22.7995  -22.7127  -22.6404  -22.5784  -22.5241  -22.4759  -22.4325  -22.3931  -22.3569  -22.3235  -22.2926  
   4.46000  -22.7813  -22.6945  -22.6222  -22.5602  -22.5059  -22.4577  -22.4143  -22.3749  -22.3387  -22.3053  -22.2744  
   4.47000  -22.7631  -22.6763  -22.6040  -22.5420  -22.4877  -22.4395  -22.3961  -22.3567  -22.3205  -22.2871  -22.2562  
   4.48000  -22.7449  -22.6581  -22.5858  -22.5238  -22.4695  -22.4213  -22.3779  -22.3385  -22.3023  -22.2689  -22.2380  
   4.49000  -22.7267  -22.6399  -22.5676  -22.5056  -22.4513  -22.4031  -22.3597  -22.3203  -22.2841  -22.2507  -22.2198  
   4.50000  -22.7085  -22.6217  -22.5494  -22.4874  -22.4331  -22.3849  -22.3415  -22.3021  -22.2659  -22.2325  -22.2016  
   4.51000  -22.6903  -22.6035  -22.5312  -22.4692  -22.4149  -22.3667  -22.3233  -22.2839  -22.2477  -22.2143  -22.1834  
   4.52000  -22.6721  -22.5853  -22.5130  -22.4510  -22.3967  -22.3485  -22.3051  -22.2657  -22.2295  -22.1961  -22.1652  
   4.53000  -22.6539  -22.5671  -22.4948  -22.4328  -22.3785  -22.3303  -22.2869  -22.2475  -22.2113  -22.1779  -22.1470  
   4.54000  -22.6357  -22.5489  -22.4766  -22.4146  -22.3603  -22.3121  -22.2687  -22.2293  -22.1931  -22.1597  -22.1288  
   4.55000  -22.6175  -22.5307  -22.4584  -22.3964  -22.3421  -22.2939  -22.2505  -22.2111  -22.1749  -22.1415  -22.1106  
   4.56000  -22.5993  -22.5125  -22.4402  -22.3782  -22.3239  -22.2757  -22.2323  -22.1929  -22.1567  -22.1233  -22.0924  
   4.57000  -22.5811  -22.4943  -22.4220  -22.3600  -22.3057  -22.2575  -22.2141  -22.1747  -22.1385  -22.1051  -22.0742  
   4.58000  -22.5629  -22.4761  -22.4038  -22.3418  -22.2875  -22.2393  -22.1959  -22.1565  -22.1203  -22.0869  -22.0560  
   4.59000  -22.5447  -22.4579  -22.3856  -22.3236  -22.2693  -22.2211  -22.1777  -22.1383  -22.1021  -22.0687  -22.0378  
   4.60000  -22.5265  -22.4397  -22.3674  -22.3054  -22.2511  -22.2029  -22.1595  -22.1201  -22.0839  -22.0505  -22.0196  
   4.61000  -22.5083  -22.4215  -22.3492  -22.2872  -22.2329  -22.1847  -22.1413  -22.1019  -22.0657  -22.0323  -22.0014  
   4.62000  -22.4901  -22.4033  -22.3310  -22.2690  -22.2147  -22.1665  -22.1231  -22.0837  -22.0475  -22.0141  -21.9832  
   4.63000  -22.4719  -22.3851  -22.3128  -22.2508  -22.1965  -22.1483  -22.1049  -22.0655  -22.0293  -21.9959  -21.9650  
   4.64000  -22.4537  -22.3669  -22.2946  -22.2326  -22.1783  -22.1301  -22.0867  -22.0473  -22.0111  -21.9777  -21.9468  
   4.65000  -22.4355  -22.3487  -22.2764  -22.2144  -22.1601  -22.1119  -22.0685  -22.0291  -21.9929  -21.9595  -21.9286  
   4.66000  -22.4173  -22.3305  -22.2582  -22.1962  -22.1419  -22.0937  -22.0503  -22.0109  -21.9747  -21.9413  -21.9104  
   4.67000  -22.3991  -22.3123  -22.2400  -22.1780  -22.1237  -22.0755  -22.0321  -21.9927  -21.9565  -21.9231  -21.8922  
   4.68000  -22.3809  -22.2941  -22.2218  -22.1598  -22.1055  -22.0573  -22.0139  -21.9745  -21.9383  -21.9049  -21.8740  
   4.69000  -22.3627  -22.2759  -22.2036  -22.1416  -22.0873  -22.0391  -21.9957  -21.9563  -21.9201  -21.8867  -21.8558  
   4.70000  -22.3445  -22.2577  -22.1854  -22.1234  -22.0691  -22.0209  -21.9775  -21.9381  -21.9019  -21.8685  -21.8376  
   4.71000  -22.3263  -22.2395  -22.1672  -22.1052  -22.0509  -22.0027  -21.9593  -21.9199  -21.8837  -21.8503  -21.8194  
   4.72000  -22.3081  -22.2213  -22.1490  -22.0870  -22.0327  -21.9845  -21.9411  -21.9017  -21.8655  -21.8321  -21.8012  
   4.73000  -22.2899  -22.2031  -22.1308  -22.0688  -22.0145  -21.9663  -21.9229  -21.8835  -21.8473  -21.8139  -21.7830  
   4.74000  -22.2717  -22.1849  -22.1126  -22.0506  -21.9963  -21.9481  -21.9047  -21.8653  -21.8291  -21.7957  -21.7648  
   4.75000  -22.2535  -22.1667  -22.0944  -22.0324  -21.9781  -21.9299  -21.8865  -21.8471  -21.8109  -21.7775  -21.7466  
   4.76000  -22.2353  -22.1485  -22.0762  -22.0142  -21.9599  -21.9117  -21.8683  -21.8289  -21.7927  -21.7593  -21.7284  
   4.77000  -22.2171  -22.1303  -22.0580  -21.9960  -21.9417  -21.8935  -21.8501  -21.8107  -21.7745  -21.7411  -21.7102  
   4.78000  -22.1989  -22.1121  -22.0398  -21.9778  -21.9235  -21.8753  -21.8319  -21.7925  -21.7563  -21.7229  -21.6920  
   4.79000  -22.1807  -22.0939  -22.0216  -21.9596  -21.9053  -21.8571  -21.8137  -21.7743  -21.7381  -21.7047  -21.6738  
   4.80000  -22.1625  -22.0757  -22.0034  -21.9414  -21.8871  -21.8389  -21.7955  -21.7561  -21.7199  -21.6865  -21.6556  
   4.81000  -22.1443  -22.0575  -21.9852  -21.9232  -21.8689  -21.8207  -21.7773  -21.7379  -21.7017  -21.6683  -21.6374  
   4.82000  -22.1261  -22.0393  -21.9670  -21.9050  -21.8507  -21.8025  -21.7591  -21.7197  -21.6835  -21.6501  -21.6192  
   4.83000  -22.1079  -22.0211  -21.9488  -21.8868  -21.8325  -21.7843  -21.7409  -21.7015  -21.6653  -21.6319  -21.6010  
   4.84000  -22.0897  -22.0029  -21.9306  -21.8686  -21.8143  -21.7661  -21.7227  -21.6833  -21.6471  -21.6137  -21.5828  
   4.85000  -22.0715  -21.9847  -21.9124  -21.8504  -21.7961  -21.7479  -21.7045  -21.6651  -21.6289  -21.5955  -21.5646  
   4.86000  -22.0533  -21.9665  -21.8942  -21.8322  -21.7779  -21.7297  -21.6863  -21.6469  -21.6107  -21.5773  -21.5464  
   4.87000  -22.0351  -21.9483  -21.8760  -21.8140  -21.7597  -21.7115  -21.6681  -21.6287  -21.5925  -21.5591  -21.5282  
   4.88000  -22.0169  -21.9301  -21.8578  -21.7958  -21.7415  -21.6933  -21.6499  -21.6105  -21.5743  -21.5409  -21.5100  
   4.89000  -21.9987  -21.9119  -21.8396  -21.7776  -21.7233  -21.6751  -21.6317  -21.5923  -21.5561  -21.5227  -21.4918  
   4.90000  -21.9805  -21.8937  -21.8214  -21.7594  -21.7051  -21.6569  -21.6135  -21.5741  -21.5379  -21.5045  -21.4736  
   4.91000  -21.9623  -21.8755  -21.8032  -21.7412  -21.6869  -21.6387  -21.5953  -21.5559  -21.5197  -21.4863  -21.4554  
   4.92000  -21.9441  -21.8573  -21.7850  -21.7230  -21.6687  -21.6205  -21.5771  -21.5377  -21.5015  -21.4681  -21.4372  
   4.93000  -21.9259  -21.8391  -21.7668  -21.7048  -21.6505  -21.6023  -21.5589  -21.5195  -21.4833  -21.4499  -21.4190  
   4.94000  -21.9077  -21.8209  -21.7486  -21.6866  -21.6323  -21.5841  -21.5407  -21.5013  -21.4651  -21.4317  -21.4008  
   4.95000  -21.8895  -21.8027  -21.7304  -21.6684  -21.6141  -21.5659  -21.5225  -21.4831  -21.4469  -21.4135  -21.3826  
   4.96000  -21.8713  -21.7845  -21.7122  -21.6502  -21.5959  -21.5477  -21.5043  -21.4649  -21.4287  -21.3953  -21.3644  
   4.97000  -21.8599  -21.7722  -21.6993  -21.6368  -21.5823  -21.5338  -21.4902  -21.4506  -21.4143  -21.3808  -21.3497  
   4.98000  -21.8715  -21.7799  -21.7043  -21.6399  -21.5839  -21.5343  -21.4897  -21.4493  -21.4124  -21.3783  -21.3468  
   4.99000  -21.8836  -21.7879  -21.7095  -21.6431  -21.5856  -21.5347  -21.4892  -21.4481  -21.4105  -21.3759  -21.3438  
   5.00000  -21.8965  -21.7963  -21.7149  -21.6464  -21.5873  -21.5352  -21.4887  -21.4468  -21.4085  -21.3733  -21.3408  
   5.01000  -21.9132  -21.8098  -21.7263  -21.6563  -21.5960  -21.5431  -21.4960  -21.4534  -21.4147  -21.3791  -21.3463  
   5.02000  -21.9311  -21.8241  -21.7383  -21.6667  -21.6052  -21.5514  -21.5035  -21.4604  -21.4211  -21.3852  -21.3519  
   5.03000  -21.9502  -21.8392  -21.7509  -21.6776  -21.6148  -21.5600  -21.5113  -21.4676  -21.4278  -21.3914  -21.3578  
   5.04000  -21.9706  -21.8553  -21.7642  -21.6890  -21.6249  -21.5690  -21.5195  -21.4751  -21.4348  -21.3979  -21.3640  
   5.05000  -21.9926  -21.8723  -21.7783  -21.7010  -21.6354  -21.5784  -21.5281  -21.4829  -21.4421  -21.4047  -21.3703  
   5.06000  -22.0163  -21.8905  -21.7931  -21.7136  -21.6464  -21.5882  -21.5370  -21.4911  -21.4496  -21.4117  -21.3769  
   5.07000  -22.0419  -21.9100  -21.8089  -21.7269  -21.6580  -21.5986  -21.5463  -21.4996  -21.4575  -21.4191  -21.3838  
   5.08000  -22.0699  -21.9308  -21.8256  -21.7410  -21.6702  -21.6094  -21.5560  -21.5085  -21.4657  -21.4267  -21.3909  
   5.09000  -22.1004  -21.9532  -21.8434  -21.7559  -21.6830  -21.6207  -21.5662  -21.5178  -21.4742  -21.4346  -21.3983  
   5.10000  -22.1341  -21.9774  -21.8624  -21.7716  -21.6966  -21.6326  -21.5769  -21.5275  -21.4831  -21.4429  -21.4061  
   5.11000  -22.1509  -21.9877  -21.8693  -21.7764  -21.6999  -21.6349  -21.5784  -21.5284  -21.4835  -21.4429  -21.4057  
   5.12000  -22.1687  -21.9984  -21.8765  -21.7813  -21.7033  -21.6372  -21.5799  -21.5292  -21.4839  -21.4428  -21.4053  
   5.13000  -22.1877  -22.0097  -21.8839  -21.7864  -21.7069  -21.6397  -21.5815  -21.5302  -21.4843  -21.4428  -21.4049  
   5.14000  -22.2080  -22.0216  -21.8916  -21.7917  -21.7105  -21.6421  -21.5831  -21.5311  -21.4847  -21.4428  -21.4045  
   5.15000  -22.2299  -22.0341  -21.8997  -21.7971  -21.7143  -21.6447  -21.5847  -21.5321  -21.4851  -21.4427  -21.4041  
   5.16000  -22.2535  -22.0473  -21.9081  -21.8028  -21.7181  -21.6473  -21.5864  -21.5331  -21.4855  -21.4427  -21.4037  
   5.17000  -22.2790  -22.0612  -21.9168  -21.8087  -21.7221  -21.6500  -21.5882  -21.5341  -21.4860  -21.4426  -21.4033  
   5.18000  -22.3067  -22.0759  -21.9260  -21.8147  -21.7263  -21.6528  -21.5900  -21.5351  -21.4864  -21.4426  -21.4028  
   5.19000  -22.3371  -22.0915  -21.9356  -21.8211  -21.7305  -21.6557  -21.5918  -21.5362  -21.4869  -21.4426  -21.4024  
   5.20000  -22.3706  -22.1080  -21.9456  -21.8276  -21.7349  -21.6586  -21.5937  -21.5373  -21.4873  -21.4425  -21.4019  
   5.21000  -22.3861  -22.1149  -21.9492  -21.8295  -21.7358  -21.6588  -21.5934  -21.5366  -21.4863  -21.4413  -21.4005  
   5.22000  -22.4025  -22.1219  -21.9528  -21.8315  -21.7367  -21.6590  -21.5930  -21.5358  -21.4853  -21.4400  -21.3990  
   5.23000  -22.4200  -22.1293  -21.9566  -21.8335  -21.7376  -21.6591  -21.5927  -21.5351  -21.4842  -21.4387  -21.3975  
   5.24000  -22.4386  -22.1369  -21.9606  -21.8355  -21.7385  -21.6593  -21.5923  -21.5343  -21.4831  -21.4374  -21.3960  
   5.25000  -22.4586  -22.1449  -21.9646  -21.8376  -21.7395  -21.6595  -21.5920  -21.5335  -21.4820  -21.4360  -21.3944  
   5.26000  -22.4800  -22.1532  -21.9688  -21.8398  -21.7405  -21.6597  -21.5916  -21.5327  -21.4809  -21.4346  -21.3928  
   5.27000  -22.5030  -22.1618  -21.9731  -21.8420  -21.7415  -21.6599  -21.5912  -21.5319  -21.4798  -21.4332  -21.3912  
   5.28000  -22.5279  -22.1709  -21.9776  -21.8443  -21.7425  -21.6601  -21.5908  -21.5311  -21.4786  -21.4318  -21.3895  
   5.29000  -22.5550  -22.1803  -21.9822  -21.8467  -21.7436  -21.6603  -21.5904  -21.5303  -21.4774  -21.4303  -21.3878  
   5.30000  -22.5846  -22.1902  -21.9870  -21.8491  -21.7446  -21.6605  -21.5900  -21.5294  -21.4762  -21.4288  -21.3861  
   5.31000  -22.5982  -22.1961  -21.9909  -21.8522  -21.7472  -21.6627  -21.5920  -21.5312  -21.4779  -21.4304  -21.3876  
   5.32000  -22.6126  -22.2021  -21.9950  -21.8553  -21.7497  -21.6649  -21.5940  -21.5330  -21.4796  -21.4320  -21.3891  
   5.33000  -22.6278  -22.2084  -21.9991  -21.8585  -21.7524  -21.6672  -21.5960  -21.5349  -21.4813  -21.4336  -21.3906  
   5.34000  -22.6440  -22.2150  -22.0034  -21.8618  -21.7551  -21.6696  -21.5982  -21.5368  -21.4831  -21.4353  -21.3922  
   5.35000  -22.6611  -22.2217  -22.0078  -21.8652  -21.7580  -21.6720  -21.6003  -21.5388  -21.4849  -21.4370  -21.3939  
   5.36000  -22.6795  -22.2288  -22.0124  -21.8687  -21.7609  -21.6746  -21.6026  -21.5409  -21.4868  -21.4388  -21.3955  
   5.37000  -22.6990  -22.2361  -22.0172  -21.8723  -21.7639  -21.6771  -21.6049  -21.5430  -21.4888  -21.4406  -21.3973  
   5.38000  -22.7200  -22.2438  -22.0221  -21.8760  -21.7669  -21.6798  -21.6073  -21.5451  -21.4908  -21.4425  -21.3990  
   5.39000  -22.7426  -22.2517  -22.0272  -21.8799  -21.7701  -21.6826  -21.6097  -21.5474  -21.4929  -21.4444  -21.4009  
   5.40000  -22.7670  -22.2600  -22.0324  -21.8839  -21.7734  -21.6854  -21.6122  -21.5497  -21.4950  -21.4464  -21.4027  
   5.41000  -22.7810  -22.2762  -22.0490  -21.9006  -21.7902  -21.7022  -21.6291  -21.5666  -21.5119  -21.4634  -21.4197  
   5.42000  -22.7958  -22.2933  -22.0666  -21.9184  -21.8081  -21.7202  -21.6471  -21.5846  -21.5300  -21.4815  -21.4378  
   5.43000  -22.8115  -22.3116  -22.0854  -21.9374  -21.8272  -21.7394  -21.6664  -21.6039  -21.5493  -21.5008  -21.4571  
   5.44000  -22.8282  -22.3312  -22.1055  -21.9577  -21.8477  -21.7599  -21.6870  -21.6245  -21.5700  -21.5215  -21.4779  
   5.45000  -22.8460  -22.3522  -22.1271  -21.9796  -21.8697  -21.7820  -21.7091  -21.6468  -21.5922  -21.5437  -21.5002  
   5.46000  -22.8649  -22.3748  -22.1504  -22.0032  -21.8934  -21.8059  -21.7331  -21.6707  -21.6162  -21.5678  -21.5242  
   5.47000  -22.8852  -22.3992  -22.1756  -22.0287  -21.9191  -21.8317  -21.7590  -21.6967  -21.6422  -21.5938  -21.5503  
   5.48000  -22.9070  -22.4256  -22.2029  -22.0564  -21.9471  -21.8598  -21.7872  -21.7250  -21.6705  -21.6222  -21.5787  
   5.49000  -22.9306  -22.4545  -22.2328  -22.0868  -21.9777  -21.8906  -21.8181  -21.7559  -21.7016  -21.6533  -21.6098  
   5.50000  -22.9560  -22.4861  -22.2658  -22.1203  -22.0115  -21.9245  -21.8521  -21.7901  -21.7358  -21.6876  -21.6442  
   5.51000  -22.9666  -22.5018  -22.2824  -22.1374  -22.0288  -21.9420  -21.8698  -21.8078  -21.7536  -21.7054  -21.6620  
   5.52000  -22.9777  -22.5183  -22.3001  -22.1555  -22.0473  -21.9607  -21.8885  -21.8266  -21.7725  -21.7244  -21.6810  
   5.53000  -22.9893  -22.5359  -22.3190  -22.1750  -22.0670  -21.9806  -21.9086  -21.8468  -21.7927  -21.7447  -21.7014  
   5.54000  -23.0016  -22.5547  -22.3392  -22.1958  -22.0882  -22.0020  -21.9301  -21.8685  -21.8145  -21.7665  -21.7233  
   5.55000  -23.0145  -22.5748  -22.3609  -22.2182  -22.1110  -22.0250  -21.9533  -21.8918  -21.8379  -21.7900  -21.7468  
   5.56000  -23.0281  -22.5964  -22.3843  -22.2424  -22.1356  -22.0499  -21.9784  -21.9171  -21.8633  -21.8154  -21.7724  
   5.57000  -23.0424  -22.6197  -22.4096  -22.2686  -22.1623  -22.0770  -22.0057  -21.9445  -21.8909  -21.8431  -21.8001  
   5.58000  -23.0577  -22.6448  -22.4371  -22.2971  -22.1915  -22.1065  -22.0355  -21.9745  -21.9210  -21.8734  -21.8305  
   5.59000  -23.0738  -22.6722  -22.4672  -22.3285  -22.2235  -22.1390  -22.0683  -22.0076  -21.9543  -21.9068  -21.8640  
   5.60000  -23.0910  -22.7021  -22.5003  -22.3630  -22.2589  -22.1750  -22.1047  -22.0442  -21.9911  -21.9438  -21.9011  
   5.61000  -23.0996  -22.7087  -22.5064  -22.3689  -22.2646  -22.1806  -22.1102  -22.0497  -21.9965  -21.9492  -21.9065  
   5.62000  -23.1085  -22.7155  -22.5126  -22.3749  -22.2704  -22.1863  -22.1159  -22.0553  -22.0021  -21.9548  -21.9121  
   5.63000  -23.1179  -22.7225  -22.5191  -22.3811  -22.2765  -22.1923  -22.1218  -22.0611  -22.0079  -21.9605  -21.9178  
   5.64000  -23.1276  -22.7299  -22.5258  -22.3875  -22.2828  -22.1985  -22.1279  -22.0672  -22.0140  -21.9665  -21.9238  
   5.65000  -23.1379  -22.7375  -22.5328  -22.3942  -22.2893  -22.2049  -22.1342  -22.0735  -22.0202  -21.9727  -21.9300  
   5.66000  -23.1486  -22.7455  -22.5401  -22.4012  -22.2961  -22.2116  -22.1408  -22.0800  -22.0267  -21.9792  -21.9364  
   5.67000  -23.1599  -22.7538  -22.5476  -22.4084  -22.3031  -22.2185  -22.1477  -22.0868  -22.0334  -21.9859  -21.9431  
   5.68000  -23.1717  -22.7624  -22.5555  -22.4159  -22.3105  -22.2257  -22.1548  -22.0939  -22.0404  -21.9929  -21.9500  
   5.69000  -23.1842  -22.7715  -22.5637  -22.4238  -22.3181  -22.2332  -22.1622  -22.1012  -22.0477  -22.0001  -21.9572  
   5.70000  -23.1973  -22.7809  -22.5723  -22.4320  -22.3261  -22.2410  -22.1699  -22.1088  -22.0553  -22.0076  -21.9647  
   5.71000  -23.2039  -22.7874  -22.5787  -22.4384  -22.3325  -22.2474  -22.1763  -22.1152  -22.0617  -22.0140  -21.9711  
   5.72000  -23.2107  -22.7941  -22.5854  -22.4451  -22.3392  -22.2541  -22.1830  -22.1219  -22.0684  -22.0207  -21.9777  
   5.73000  -23.2178  -22.8011  -22.5924  -22.4520  -22.3461  -22.2610  -22.1899  -22.1288  -22.0753  -22.0276  -21.9847  
   5.74000  -23.2251  -22.8083  -22.5996  -22.4592  -22.3533  -22.2682  -22.1971  -22.1360  -22.0825  -22.0348  -21.9918  
   5.75000  -23.2328  -22.8159  -22.6071  -22.4667  -22.3608  -22.2757  -22.2046  -22.1435  -22.0899  -22.0423  -21.9993  
   5.76000  -23.2408  -22.8237  -22.6149  -22.4745  -22.3686  -22.2835  -22.2124  -22.1513  -22.0977  -22.0501  -22.0071  
   5.77000  -23.2491  -22.8319  -22.6231  -22.4827  -22.3767  -22.2916  -22.2205  -22.1594  -22.1059  -22.0582  -22.0152  
   5.78000  -23.2579  -22.8405  -22.6316  -22.4912  -22.3852  -22.3001  -22.2290  -22.1679  -22.1143  -22.0667  -22.0237  
   5.79000  -23.2669  -22.8494  -22.6405  -22.5000  -22.3941  -22.3090  -22.2378  -22.1767  -22.1232  -22.0755  -22.0325  
   5.80000  -23.2764  -22.8587  -22.6498  -22.5093  -22.4033  -22.3182  -22.2471  -22.1860  -22.1324  -22.0847  -22.0418  
   5.81000  -23.2810  -22.8631  -22.6542  -22.5137  -22.4077  -22.3226  -22.2515  -22.1903  -22.1368  -22.0891  -22.0461  
   5.82000  -23.2857  -22.8677  -22.6587  -22.5182  -22.4122  -22.3271  -22.2560  -22.1949  -22.1413  -22.0936  -22.0507  
   5.83000  -23.2906  -22.8725  -22.6634  -22.5229  -22.4169  -22.3318  -22.2606  -22.1995  -22.1459  -22.0983  -22.0553  
   5.84000  -23.2956  -22.8774  -22.6683  -22.5278  -22.4218  -22.3366  -22.2655  -22.2043  -22.1508  -22.1031  -22.0601  
   5.85000  -23.3009  -22.8824  -22.6733  -22.5328  -22.4268  -22.3416  -22.2705  -22.2093  -22.1558  -22.1081  -22.0651  
   5.86000  -23.3063  -22.8877  -22.6785  -22.5380  -22.4319  -22.3468  -22.2756  -22.2145  -22.1609  -22.1132  -22.0703  
   5.87000  -23.3119  -22.8931  -22.6839  -22.5433  -22.4373  -22.3522  -22.2810  -22.2199  -22.1663  -22.1186  -22.0756  
   5.88000  -23.3177  -22.8987  -22.6895  -22.5489  -22.4429  -22.3577  -22.2865  -22.2254  -22.1718  -22.1241  -22.0812  
   5.89000  -23.3237  -22.9046  -22.6953  -22.5547  -22.4486  -22.3635  -22.2923  -22.2312  -22.1776  -22.1299  -22.0869  
   5.90000  -23.3300  -22.9107  -22.7013  -22.5607  -22.4546  -22.3695  -22.2983  -22.2371  -22.1835  -22.1358  -22.0929  
   5.91000  -23.3327  -22.9115  -22.7017  -22.5609  -22.4547  -22.3694  -22.2982  -22.2370  -22.1834  -22.1357  -22.0927  
   5.92000  -23.3354  -22.9123  -22.7021  -22.5610  -22.4547  -22.3694  -22.2981  -22.2369  -22.1833  -22.1355  -22.0925  
   5.93000  -23.3382  -22.9131  -22.7024  -22.5612  -22.4548  -22.3694  -22.2981  -22.2368  -22.1831  -22.1354  -22.0924  
   5.94000  -23.3411  -22.9140  -22.7028  -22.5614  -22.4549  -22.3694  -22.2980  -22.2367  -22.1830  -22.1352  -22.0922  
   5.95000  -23.3441  -22.9148  -22.7032  -22.5616  -22.4549  -22.3694  -22.2979  -22.2366  -22.1829  -22.1350  -22.0920  
   5.96000  -23.3472  -22.9157  -22.7036  -22.5617  -22.4550  -22.3693  -22.2978  -22.2365  -22.1827  -22.1349  -22.0918  
   5.97000  -23.3504  -22.9167  -22.7040  -22.5619  -22.4550  -22.3693  -22.2978  -22.2363  -22.1825  -22.1347  -22.0916  
   5.98000  -23.3537  -22.9176  -22.7045  -22.5621  -22.4551  -22.3693  -22.2977  -22.2362  -22.1824  -22.1345  -22.0914  
   5.99000  -23.3571  -22.9186  -22.7049  -22.5623  -22.4552  -22.3693  -22.2976  -22.2361  -22.1822  -22.1343  -22.0912  
   6.00000  -23.3605  -22.9196  -22.7053  -22.5625  -22.4552  -22.3692  -22.2975  -22.2360  -22.1821  -22.1341  -22.0910  
   6.01000  -23.3615  -22.9208  -22.7066  -22.5638  -22.4565  -22.3706  -22.2988  -22.2373  -22.1834  -22.1354  -22.0923  
   6.02000  -23.3625  -22.9220  -22.7079  -22.5651  -22.4579  -22.3719  -22.3002  -22.2386  -22.1847  -22.1368  -22.0936  
   6.03000  -23.3636  -22.9233  -22.7092  -22.5665  -22.4592  -22.3733  -22.3016  -22.2400  -22.1861  -22.1382  -22.0950  
   6.04000  -23.3647  -22.9246  -22.7106  -22.5679  -22.4606  -22.3747  -22.3030  -22.2415  -22.1876  -22.1396  -22.0965  
   6.05000  -23.3657  -22.9260  -22.7120  -22.5693  -22.4621  -22.3762  -22.3045  -22.2429  -22.1890  -22.1411  -22.0980  
   6.06000  -23.3669  -22.9274  -22.7135  -22.5708  -22.4636  -22.3777  -22.3060  -22.2444  -22.1906  -22.1426  -22.0995  
   6.07000  -23.3680  -22.9288  -22.7150  -22.5723  -22.4651  -22.3792  -22.3075  -22.2460  -22.1921  -22.1442  -22.1010  
   6.08000  -23.3692  -22.9303  -22.7165  -22.5739  -22.4667  -22.3808  -22.3091  -22.2476  -22.1937  -22.1458  -22.1026  
   6.09000  -23.3704  -22.9318  -22.7180  -22.5755  -22.4683  -22.3824  -22.3107  -22.2492  -22.1953  -22.1474  -22.1043  
   6.10000  -23.3716  -22.9333  -22.7197  -22.5771  -22.4699  -22.3841  -22.3124  -22.2509  -22.1970  -22.1491  -22.1060  
   6.11000  -23.3714  -22.9353  -22.7221  -22.5798  -22.4727  -22.3869  -22.3153  -22.2539  -22.2000  -22.1521  -22.1090  
   6.12000  -23.3712  -22.9373  -22.7247  -22.5825  -22.4756  -22.3899  -22.3184  -22.2569  -22.2031  -22.1553  -22.1122  
   6.13000  -23.3710  -22.9394  -22.7273  -22.5854  -22.4786  -22.3930  -22.3215  -22.2601  -22.2063  -22.1585  -22.1154  
   6.14000  -23.3708  -22.9416  -22.7300  -22.5883  -22.4817  -22.3961  -22.3247  -22.2634  -22.2096  -22.1618  -22.1188  
   6.15000  -23.3706  -22.9438  -22.7328  -22.5914  -22.4849  -22.3994  -22.3280  -22.2667  -22.2130  -22.1653  -22.1222  
   6.16000  -23.3704  -22.9461  -22.7356  -22.5945  -22.4881  -22.4027  -22.3314  -22.2702  -22.2165  -22.1688  -22.1258  
   6.17000  -23.3701  -22.9484  -22.7386  -22.5977  -22.4915  -22.4062  -22.3350  -22.2738  -22.2202  -22.1724  -22.1294  
   6.18000  -23.3699  -22.9508  -22.7416  -22.6010  -22.4950  -22.4098  -22.3386  -22.2775  -22.2239  -22.1762  -22.1332  
   6.19000  -23.3696  -22.9533  -22.7447  -22.6044  -22.4985  -22.4135  -22.3424  -22.2813  -22.2277  -22.1801  -22.1372  
   6.20000  -23.3694  -22.9559  -22.7480  -22.6079  -22.5022  -22.4173  -22.3463  -22.2852  -22.2317  -22.1841  -22.1412  
   6.21000  -23.3681  -22.9611  -22.7548  -22.6154  -22.5101  -22.4254  -22.3546  -22.2937  -22.2403  -22.1928  -22.1499  
   6.22000  -23.3668  -22.9665  -22.7618  -22.6233  -22.5184  -22.4340  -22.3633  -22.3026  -22.2493  -22.2018  -22.1591  
   6.23000  -23.3654  -22.9721  -22.7692  -22.6314  -22.5270  -22.4429  -22.3724  -22.3118  -22.2587  -22.2113  -22.1686  
   6.24000  -23.3641  -22.9780  -22.7769  -22.6399  -22.5360  -22.4522  -22.3820  -22.3215  -22.2685  -22.2212  -22.1786  
   6.25000  -23.3626  -22.9840  -22.7848  -22.6488  -22.5454  -22.4619  -22.3919  -22.3317  -22.2788  -22.2316  -22.1891  
   6.26000  -23.3612  -22.9903  -22.7932  -22.6581  -22.5552  -22.4721  -22.4024  -22.3423  -22.2895  -22.2425  -22.2000  
   6.27000  -23.3598  -22.9968  -22.8019  -22.6678  -22.5655  -22.4828  -22.4133  -22.3534  -22.3008  -22.2539  -22.2116  
   6.28000  -23.3583  -23.0035  -22.8109  -22.6780  -22.5763  -22.4940  -22.4248  -22.3652  -22.3127  -22.2659  -22.2237  
   6.29000  -23.3567  -23.0106  -22.8204  -22.6886  -22.5876  -22.5058  -22.4369  -22.3775  -22.3252  -22.2786  -22.2365  
   6.30000  -23.3552  -23.0179  -22.8303  -22.6998  -22.5995  -22.5182  -22.4496  -22.3905  -22.3384  -22.2919  -22.2499  
   6.31000  -23.3531  -23.0239  -22.8388  -22.7095  -22.6099  -22.5290  -22.4608  -22.4019  -22.3500  -22.3037  -22.2618  
   6.32000  -23.3509  -23.0302  -22.8477  -22.7196  -22.6208  -22.5404  -22.4725  -22.4139  -22.3622  -22.3160  -22.2743  
   6.33000  -23.3487  -23.0367  -22.8570  -22.7302  -22.6322  -22.5523  -22.4849  -22.4265  -22.3751  -22.3291  -22.2875  
   6.34000  -23.3465  -23.0434  -22.8666  -22.7414  -22.6442  -22.5649  -22.4979  -22.4398  -22.3886  -22.3428  -22.3014  
   6.35000  -23.3442  -23.0504  -22.8768  -22.7531  -22.6569  -22.5782  -22.5116  -22.4539  -22.4029  -22.3573  -22.3161  
   6.36000  -23.3419  -23.0577  -22.8874  -22.7654  -22.6702  -22.5922  -22.5261  -22.4688  -22.4181  -22.3727  -22.3317  
   6.37000  -23.3395  -23.0653  -22.8985  -22.7783  -22.6843  -22.6070  -22.5415  -22.4845  -22.4342  -22.3891  -22.3482  
   6.38000  -23.3371  -23.0732  -22.9103  -22.7920  -22.6992  -22.6228  -22.5578  -22.5013  -22.4513  -22.4064  -22.3658  
   6.39000  -23.3347  -23.0815  -22.9226  -22.8065  -22.7150  -22.6395  -22.5751  -22.5191  -22.4695  -22.4250  -22.3846  
   6.40000  -23.3322  -23.0901  -22.9356  -22.8218  -22.7318  -22.6572  -22.5936  -22.5382  -22.4890  -22.4448  -22.4047  
   6.41000  -23.3294  -23.0937  -22.9417  -22.8294  -22.7402  -22.6663  -22.6031  -22.5479  -22.4990  -22.4551  -22.4151  
   6.42000  -23.3266  -23.0974  -22.9481  -22.8372  -22.7490  -22.6757  -22.6130  -22.5582  -22.5095  -22.4658  -22.4261  
   6.43000  -23.3237  -23.1012  -22.9547  -22.8454  -22.7581  -22.6855  -22.6233  -22.5689  -22.5206  -22.4771  -22.4375  
   6.44000  -23.3208  -23.1051  -22.9616  -22.8539  -22.7677  -22.6958  -22.6342  -22.5802  -22.5322  -22.4889  -22.4496  
   6.45000  -23.3179  -23.1091  -22.9688  -22.8628  -22.7778  -22.7066  -22.6456  -22.5920  -22.5443  -22.5014  -22.4623  
   6.46000  -23.3148  -23.1133  -22.9762  -22.8721  -22.7883  -22.7180  -22.6575  -22.6045  -22.5572  -22.5145  -22.4757  
   6.47000  -23.3118  -23.1176  -22.9840  -22.8819  -22.7993  -22.7299  -22.6701  -22.6176  -22.5707  -22.5284  -22.4899  
   6.48000  -23.3087  -23.1221  -22.9920  -22.8921  -22.8109  -22.7425  -22.6834  -22.6314  -22.5850  -22.5431  -22.5048  
   6.49000  -23.3055  -23.1267  -23.0005  -22.9028  -22.8231  -22.7557  -22.6975  -22.6461  -22.6001  -22.5586  -22.5207  
   6.50000  -23.3023  -23.1315  -23.0093  -22.9140  -22.8359  -22.7697  -22.7123  -22.6616  -22.6162  -22.5751  -22.5376  
   6.51000  -23.2989  -23.1319  -23.0115  -22.9174  -22.8400  -22.7744  -22.7174  -22.6671  -22.6219  -22.5810  -22.5437  
   6.52000  -23.2955  -23.1322  -23.0138  -22.9208  -22.8443  -22.7793  -22.7227  -22.6727  -22.6278  -22.5872  -22.5500  
   6.53000  -23.2920  -23.1325  -23.0161  -22.9244  -22.8487  -22.7843  -22.7282  -22.6785  -22.6340  -22.5935  -22.5566  
   6.54000  -23.2885  -23.1329  -23.0185  -22.9281  -22.8533  -22.7895  -22.7339  -22.6846  -22.6403  -22.6002  -22.5634  
   6.55000  -23.2849  -23.1332  -23.0210  -22.9319  -22.8580  -22.7949  -22.7398  -22.6909  -22.6469  -22.6070  -22.5705  
   6.56000  -23.2813  -23.1336  -23.0235  -22.9358  -22.8629  -22.8005  -22.7459  -22.6974  -22.6538  -22.6142  -22.5779  
   6.57000  -23.2776  -23.1339  -23.0262  -22.9399  -22.8680  -22.8063  -22.7522  -22.7042  -22.6610  -22.6216  -22.5856  
   6.58000  -23.2739  -23.1343  -23.0289  -22.9441  -22.8732  -22.8123  -22.7588  -22.7113  -22.6684  -22.6294  -22.5936  
   6.59000  -23.2701  -23.1347  -23.0317  -22.9484  -22.8786  -22.8185  -22.7657  -22.7186  -22.6761  -22.6375  -22.6019  
   6.60000  -23.2662  -23.1351  -23.0345  -22.9529  -22.8842  -22.8250  -22.7728  -22.7262  -22.6842  -22.6459  -22.6107  
   6.61000  -23.2625  -23.1331  -23.0336  -22.9527  -22.8845  -22.8256  -22.7737  -22.7274  -22.6855  -22.6474  -22.6123  
   6.62000  -23.2586  -23.1311  -23.0327  -22.9525  -22.8848  -22.8262  -22.7747  -22.7286  -22.6869  -22.6489  -22.6139  
   6.63000  -23.2548  -23.1291  -23.0317  -22.9522  -22.8851  -22.8269  -22.7756  -22.7298  -22.6883  -22.6504  -22.6156  
   6.64000  -23.2508  -23.1270  -23.0307  -22.9520  -22.8853  -22.8276  -22.7766  -22.7310  -22.6897  -22.6520  -22.6174  
   6.65000  -23.2469  -23.1249  -23.0297  -22.9517  -22.8856  -22.8283  -22.7776  -22.7323  -22.6912  -22.6537  -22.6191  
   6.66000  -23.2428  -23.1227  -23.0287  -22.9515  -22.8859  -22.8290  -22.7786  -22.7335  -22.6927  -22.6554  -22.6210  
   6.67000  -23.2387  -23.1205  -23.0277  -22.9512  -22.8862  -22.8297  -22.7797  -22.7349  -22.6942  -22.6571  -22.6229  
   6.68000  -23.2346  -23.1183  -23.0266  -22.9509  -22.8865  -22.8305  -22.7808  -22.7362  -22.6958  -22.6589  -22.6248  
   6.69000  -23.2304  -23.1160  -23.0255  -22.9507  -22.8869  -22.8312  -22.7819  -22.7376  -22.6975  -22.6607  -22.6268  
   6.70000  -23.2261  -23.1136  -23.0244  -22.9504  -22.8872  -22.8320  -22.7831  -22.7391  -22.6991  -22.6626  -22.6288  
   6.71000  -23.2223  -23.1107  -23.0220  -22.9484  -22.8855  -22.8305  -22.7817  -22.7379  -22.6980  -22.6616  -22.6279  
   6.72000  -23.2185  -23.1078  -23.0196  -22.9464  -22.8837  -22.8290  -22.7803  -22.7366  -22.6969  -22.6605  -22.6270  
   6.73000  -23.2146  -23.1048  -23.0172  -22.9443  -22.8819  -22.8274  -22.7789  -22.7354  -22.6958  -22.6595  -22.6260  
   6.74000  -23.2107  -23.1017  -23.0147  -22.9422  -22.8801  -22.8258  -22.7775  -22.7341  -22.6946  -22.6584  -22.6250  
   6.75000  -23.2067  -23.0986  -23.0121  -22.9400  -22.8782  -22.8242  -22.7761  -22.7328  -22.6934  -22.6573  -22.6240  
   6.76000  -23.2026  -23.0954  -23.0095  -22.9379  -22.8764  -22.8225  -22.7746  -22.7314  -22.6922  -22.6562  -22.6229  
   6.77000  -23.1985  -23.0922  -23.0069  -22.9356  -22.8744  -22.8208  -22.7731  -22.7301  -22.6909  -22.6550  -22.6219  
   6.78000  -23.1943  -23.0890  -23.0042  -22.9334  -22.8725  -22.8191  -22.7715  -22.7287  -22.6897  -22.6539  -22.6208  
   6.79000  -23.1901  -23.0856  -23.0015  -22.9311  -22.8705  -22.8173  -22.7699  -22.7272  -22.6884  -22.6527  -22.6197  
   6.80000  -23.1858  -23.0823  -22.9988  -22.9287  -22.8684  -22.8155  -22.7683  -22.7258  -22.6870  -22.6515  -22.6186  
   6.81000  -23.1821  -23.0794  -22.9963  -22.9267  -22.8667  -22.8139  -22.7669  -22.7245  -22.6859  -22.6504  -22.6176  
   6.82000  -23.1783  -23.0764  -22.9939  -22.9246  -22.8648  -22.8123  -22.7655  -22.7232  -22.6847  -22.6493  -22.6166  
   6.83000  -23.1745  -23.0734  -22.9914  -22.9224  -22.8630  -22.8107  -22.7640  -22.7218  -22.6834  -22.6481  -22.6155  
   6.84000  -23.1706  -23.0703  -22.9888  -22.9203  -22.8611  -22.8090  -22.7625  -22.7205  -22.6822  -22.6470  -22.6144  
   6.85000  -23.1667  -23.0672  -22.9863  -22.9181  -22.8592  -22.8073  -22.7609  -22.7191  -22.6809  -22.6458  -22.6133  
   6.86000  -23.1627  -23.0640  -22.9836  -22.9158  -22.8572  -22.8055  -22.7594  -22.7177  -22.6796  -22.6446  -22.6122  
   6.87000  -23.1587  -23.0608  -22.9809  -22.9135  -22.8552  -22.8038  -22.7578  -22.7162  -22.6783  -22.6434  -22.6111  
   6.88000  -23.1546  -23.0575  -22.9782  -22.9112  -22.8531  -22.8020  -22.7562  -22.7147  -22.6769  -22.6421  -22.6099  
   6.89000  -23.1504  -23.0542  -22.9755  -22.9088  -22.8511  -22.8001  -22.7545  -22.7132  -22.6755  -22.6409  -22.6087  
   6.90000  -23.1462  -23.0508  -22.9726  -22.9064  -22.8490  -22.7982  -22.7528  -22.7117  -22.6741  -22.6396  -22.6075  
   6.91000  -23.1422  -23.0481  -22.9709  -22.9053  -22.8484  -22.7980  -22.7529  -22.7120  -22.6747  -22.6403  -22.6085  
   6.92000  -23.1380  -23.0454  -22.9691  -22.9042  -22.8478  -22.7978  -22.7530  -22.7124  -22.6753  -22.6411  -22.6094  
   6.93000  -23.1339  -23.0426  -22.9673  -22.9031  -22.8471  -22.7976  -22.7531  -22.7128  -22.6759  -22.6419  -22.6104  
   6.94000  -23.1296  -23.0398  -22.9654  -22.9019  -22.8465  -22.7974  -22.7533  -22.7132  -22.6765  -22.6427  -22.6114  
   6.95000  -23.1253  -23.0369  -22.9635  -22.9007  -22.8458  -22.7972  -22.7534  -22.7136  -22.6772  -22.6436  -22.6124  
   6.96000  -23.1210  -23.0340  -22.9616  -22.8995  -22.8452  -22.7969  -22.7535  -22.7140  -22.6778  -22.6444  -22.6134  
   6.97000  -23.1166  -23.0310  -22.9596  -22.8982  -22.8445  -22.7967  -22.7536  -22.7144  -22.6785  -22.6453  -22.6145  
   6.98000  -23.1121  -23.0280  -22.9576  -22.8970  -22.8438  -22.7964  -22.7537  -22.7149  -22.6792  -22.6462  -22.6156  
   6.99000  -23.1076  -23.0249  -22.9555  -22.8957  -22.8431  -22.7962  -22.7539  -22.7153  -22.6799  -22.6472  -22.6167  
   7.00000  -23.1030  -23.0218  -22.9534  -22.8944  -22.8424  -22.7960  -22.7540  -22.7158  -22.6806  -22.6481  -22.6179  
   7.01000  -23.0988  -23.0197  -22.9528  -22.8949  -22.8438  -22.7980  -22.7567  -22.7189  -22.6842  -22.6520  -22.6220  
   7.02000  -23.0945  -23.0176  -22.9522  -22.8954  -22.8452  -22.8002  -22.7594  -22.7221  -22.6878  -22.6560  -22.6264  
   7.03000  -23.0902  -23.0154  -22.9516  -22.8960  -22.8467  -22.8024  -22.7622  -22.7255  -22.6916  -22.6601  -22.6308  
   7.04000  -23.0857  -23.0131  -22.9509  -22.8965  -22.8482  -22.8047  -22.7651  -22.7289  -22.6955  -22.6644  -22.6355  
   7.05000  -23.0813  -23.0108  -22.9502  -22.8971  -22.8497  -22.8070  -22.7681  -22.7325  -22.6995  -22.6689  -22.6402  
   7.06000  -23.0768  -23.0085  -22.9496  -22.8977  -22.8513  -22.8094  -22.7712  -22.7361  -22.7037  -22.6734  -22.6452  
   7.07000  -23.0722  -23.0062  -22.9489  -22.8983  -22.8529  -22.8119  -22.7744  -22.7399  -22.7079  -22.6782  -22.6503  
   7.08000  -23.0675  -23.0038  -22.9482  -22.8989  -22.8546  -22.8145  -22.7777  -22.7438  -22.7124  -22.6831  -22.6556  
   7.09000  -23.0628  -23.0013  -22.9474  -22.8995  -22.8563  -22.8171  -22.7811  -22.7478  -22.7170  -22.6881  -22.6611  
   7.10000  -23.0581  -22.9988  -22.9467  -22.9002  -22.8581  -22.8198  -22.7846  -22.7520  -22.7217  -22.6934  -22.6668  
   7.11000  -23.0537  -22.9967  -22.9463  -22.9011  -22.8602  -22.8228  -22.7884  -22.7565  -22.7268  -22.6990  -22.6728  
   7.12000  -23.0493  -22.9945  -22.9458  -22.9021  -22.8623  -22.8259  -22.7923  -22.7611  -22.7320  -22.7048  -22.6791  
   7.13000  -23.0448  -22.9922  -22.9454  -22.9030  -22.8645  -22.8291  -22.7963  -22.7659  -22.7375  -22.7108  -22.6856  
   7.14000  -23.0403  -22.9900  -22.9449  -22.9041  -22.8667  -22.8324  -22.8005  -22.7709  -22.7431  -22.7170  -22.6924  
   7.15000  -23.0357  -22.9877  -22.9444  -22.9051  -22.8691  -22.8358  -22.8048  -22.7760  -22.7489  -22.7234  -22.6994  
   7.16000  -23.0310  -22.9853  -22.9439  -22.9062  -22.8714  -22.8393  -22.8093  -22.7813  -22.7550  -22.7302  -22.7067  
   7.17000  -23.0263  -22.9829  -22.9434  -22.9073  -22.8739  -22.8429  -22.8139  -22.7868  -22.7613  -22.7371  -22.7143  
   7.18000  -23.0216  -22.9805  -22.9429  -22.9084  -22.8764  -22.8466  -22.8187  -22.7925  -22.7678  -22.7444  -22.7222  
   7.19000  -23.0167  -22.9780  -22.9424  -22.9095  -22.8790  -22.8504  -22.8237  -22.7984  -22.7746  -22.7520  -22.7305  
   7.20000  -23.0118  -22.9755  -22.9419  -22.9107  -22.8817  -22.8544  -22.8288  -22.8046  -22.7816  -22.7599  -22.7391  
   7.21000  -23.0075  -22.9725  -22.9401  -22.9099  -22.8817  -22.8552  -22.8303  -22.8066  -22.7843  -22.7630  -22.7427  
   7.22000  -23.0031  -22.9694  -22.9382  -22.9090  -22.8817  -22.8560  -22.8318  -22.8088  -22.7870  -22.7662  -22.7463  
   7.23000  -22.9987  -22.9664  -22.9363  -22.9082  -22.8818  -22.8569  -22.8333  -22.8110  -22.7897  -22.7695  -22.7501  
   7.24000  -22.9942  -22.9632  -22.9344  -22.9073  -22.8818  -22.8577  -22.8349  -22.8132  -22.7926  -22.7729  -22.7540  
   7.25000  -22.9896  -22.9601  -22.9324  -22.9064  -22.8818  -22.8586  -22.8365  -22.8156  -22.7955  -22.7764  -22.7581  
   7.26000  -22.9850  -22.9568  -22.9304  -22.9054  -22.8819  -22.8595  -22.8382  -22.8180  -22.7986  -22.7800  -22.7623  
   7.27000  -22.9803  -22.9535  -22.9283  -22.9045  -22.8819  -22.8604  -22.8400  -22.8204  -22.8017  -22.7838  -22.7666  
   7.28000  -22.9756  -22.9502  -22.9262  -22.9035  -22.8819  -22.8614  -22.8417  -22.8229  -22.8049  -22.7876  -22.7710  
   7.29000  -22.9708  -22.9468  -22.9241  -22.9025  -22.8820  -22.8623  -22.8436  -22.8256  -22.8083  -22.7916  -22.7756  
   7.30000  -22.9660  -22.9434  -22.9220  -22.9015  -22.8820  -22.8633  -22.8454  -22.8282  -22.8117  -22.7958  -22.7804  
   7.31000  -22.9616  -22.9398  -22.9189  -22.8991  -22.8801  -22.8618  -22.8444  -22.8276  -22.8114  -22.7958  -22.7808  
   7.32000  -22.9572  -22.9361  -22.9158  -22.8965  -22.8781  -22.8603  -22.8433  -22.8269  -22.8111  -22.7959  -22.7811  
   7.33000  -22.9528  -22.9323  -22.9127  -22.8940  -22.8760  -22.8588  -22.8422  -22.8262  -22.8108  -22.7959  -22.7815  
   7.34000  -22.9483  -22.9285  -22.9095  -22.8914  -22.8739  -22.8572  -22.8411  -22.8255  -22.8105  -22.7960  -22.7819  
   7.35000  -22.9437  -22.9246  -22.9063  -22.8887  -22.8718  -22.8556  -22.8399  -22.8248  -22.8102  -22.7960  -22.7823  
   7.36000  -22.9391  -22.9207  -22.9030  -22.8860  -22.8697  -22.8539  -22.8387  -22.8240  -22.8098  -22.7961  -22.7827  
   7.37000  -22.9345  -22.9167  -22.8997  -22.8833  -22.8675  -22.8523  -22.8375  -22.8233  -22.8095  -22.7961  -22.7832  
   7.38000  -22.9297  -22.9127  -22.8963  -22.8805  -22.8653  -22.8505  -22.8363  -22.8225  -22.8092  -22.7962  -22.7836  
   7.39000  -22.9249  -22.9086  -22.8929  -22.8777  -22.8630  -22.8488  -22.8351  -22.8217  -22.8088  -22.7962  -22.7840  
   7.40000  -22.9201  -22.9045  -22.8894  -22.8748  -22.8607  -22.8470  -22.8338  -22.8209  -22.8084  -22.7963  -22.7845  
   7.41000  -22.9158  -22.9005  -22.8857  -22.8715  -22.8577  -22.8443  -22.8313  -22.8187  -22.8064  -22.7945  -22.7829  
   7.42000  -22.9114  -22.8965  -22.8820  -22.8681  -22.8546  -22.8415  -22.8288  -22.8164  -22.8044  -22.7927  -22.7813  
   7.43000  -22.9069  -22.8924  -22.8783  -22.8647  -22.8515  -22.8387  -22.8262  -22.8141  -22.8023  -22.7909  -22.7797  
   7.44000  -22.9024  -22.8882  -22.8745  -22.8612  -22.8483  -22.8358  -22.8236  -22.8117  -22.8002  -22.7890  -22.7780  
   7.45000  -22.8978  -22.8840  -22.8706  -22.8577  -22.8451  -22.8328  -22.8209  -22.8093  -22.7981  -22.7871  -22.7763  
   7.46000  -22.8932  -22.8797  -22.8667  -22.8541  -22.8418  -22.8299  -22.8182  -22.8069  -22.7959  -22.7851  -22.7746  
   7.47000  -22.8885  -22.8754  -22.8628  -22.8504  -22.8385  -22.8268  -22.8155  -22.8044  -22.7936  -22.7831  -22.7729  
   7.48000  -22.8837  -22.8710  -22.8587  -22.8468  -22.8351  -22.8237  -22.8127  -22.8019  -22.7914  -22.7811  -22.7711  
   7.49000  -22.8789  -22.8666  -22.8547  -22.8430  -22.8317  -22.8206  -22.8098  -22.7993  -22.7891  -22.7790  -22.7692  
   7.50000  -22.8741  -22.8621  -22.8505  -22.8392  -22.8282  -22.8174  -22.8070  -22.7967  -22.7867  -22.7769  -22.7674  
   7.51000  -22.8697  -22.8579  -22.8465  -22.8354  -22.8246  -22.8140  -22.8036  -22.7936  -22.7837  -22.7741  -22.7646  
   7.52000  -22.8652  -22.8537  -22.8425  -22.8315  -22.8209  -22.8105  -22.8003  -22.7904  -22.7806  -22.7711  -22.7618  
   7.53000  -22.8607  -22.8494  -22.8384  -22.8276  -22.8171  -22.8069  -22.7969  -22.7871  -22.7775  -22.7682  -22.7590  
   7.54000  -22.8561  -22.8450  -22.8342  -22.8236  -22.8133  -22.8033  -22.7934  -22.7838  -22.7744  -22.7652  -22.7561  
   7.55000  -22.8515  -22.8406  -22.8300  -22.8196  -22.8095  -22.7996  -22.7899  -22.7804  -22.7712  -22.7621  -22.7532  
   7.56000  -22.8468  -22.8361  -22.8257  -22.8155  -22.8056  -22.7959  -22.7863  -22.7770  -22.7679  -22.7590  -22.7502  
   7.57000  -22.8421  -22.8316  -22.8214  -22.8114  -22.8016  -22.7921  -22.7827  -22.7736  -22.7646  -22.7558  -22.7472  
   7.58000  -22.8373  -22.8270  -22.8170  -22.8072  -22.7976  -22.7882  -22.7791  -22.7701  -22.7613  -22.7526  -22.7442  
   7.59000  -22.8324  -22.8224  -22.8126  -22.8029  -22.7935  -22.7843  -22.7753  -22.7665  -22.7578  -22.7494  -22.7410  
   7.60000  -22.8275  -22.8177  -22.8081  -22.7986  -22.7894  -22.7804  -22.7716  -22.7629  -22.7544  -22.7461  -22.7379  
   7.61000  -22.8231  -22.8133  -22.8038  -22.7945  -22.7854  -22.7765  -22.7678  -22.7592  -22.7508  -22.7426  -22.7345  
   7.62000  -22.8185  -22.8089  -22.7996  -22.7904  -22.7814  -22.7726  -22.7640  -22.7555  -22.7472  -22.7391  -22.7311  
   7.63000  -22.8139  -22.8045  -22.7952  -22.7862  -22.7773  -22.7686  -22.7601  -22.7517  -22.7435  -22.7355  -22.7276  
   7.64000  -22.8093  -22.8000  -22.7909  -22.7819  -22.7732  -22.7646  -22.7562  -22.7479  -22.7398  -22.7318  -22.7240  
   7.65000  -22.8046  -22.7954  -22.7864  -22.7776  -22.7690  -22.7605  -22.7522  -22.7440  -22.7360  -22.7282  -22.7204  
   7.66000  -22.7998  -22.7908  -22.7819  -22.7732  -22.7647  -22.7563  -22.7481  -22.7401  -22.7322  -22.7244  -22.7168  
   7.67000  -22.7950  -22.7861  -22.7774  -22.7688  -22.7604  -22.7521  -22.7440  -22.7361  -22.7283  -22.7206  -22.7131  
   7.68000  -22.7901  -22.7814  -22.7727  -22.7643  -22.7560  -22.7479  -22.7399  -22.7320  -22.7243  -22.7168  -22.7093  
   7.69000  -22.7852  -22.7766  -22.7681  -22.7597  -22.7516  -22.7436  -22.7357  -22.7279  -22.7203  -22.7129  -22.7055  
   7.70000  -22.7802  -22.7717  -22.7633  -22.7551  -22.7471  -22.7392  -22.7314  -22.7238  -22.7163  -22.7089  -22.7017  
   7.71000  -22.7757  -22.7673  -22.7590  -22.7509  -22.7429  -22.7351  -22.7274  -22.7199  -22.7124  -22.7051  -22.6979  
   7.72000  -22.7712  -22.7628  -22.7547  -22.7466  -22.7387  -22.7310  -22.7234  -22.7159  -22.7085  -22.7013  -22.6942  
   7.73000  -22.7666  -22.7583  -22.7502  -22.7423  -22.7345  -22.7268  -22.7192  -22.7118  -22.7045  -22.6974  -22.6903  
   7.74000  -22.7619  -22.7538  -22.7457  -22.7379  -22.7301  -22.7225  -22.7151  -22.7077  -22.7005  -22.6934  -22.6864  
   7.75000  -22.7572  -22.7491  -22.7412  -22.7334  -22.7258  -22.7182  -22.7108  -22.7036  -22.6964  -22.6894  -22.6825  
   7.76000  -22.7524  -22.7445  -22.7366  -22.7289  -22.7213  -22.7139  -22.7066  -22.6994  -22.6923  -22.6853  -22.6785  
   7.77000  -22.7476  -22.7397  -22.7319  -22.7243  -22.7168  -22.7095  -22.7022  -22.6951  -22.6881  -22.6812  -22.6744  
   7.78000  -22.7427  -22.7349  -22.7272  -22.7197  -22.7123  -22.7050  -22.6978  -22.6908  -22.6838  -22.6770  -22.6703  
   7.79000  -22.7378  -22.7301  -22.7225  -22.7150  -22.7077  -22.7005  -22.6934  -22.6864  -22.6795  -22.6728  -22.6661  
   7.80000  -22.7328  -22.7251  -22.7176  -22.7103  -22.7030  -22.6959  -22.6889  -22.6820  -22.6752  -22.6685  -22.6619  
   7.81000  -22.7283  -22.7207  -22.7133  -22.7060  -22.6988  -22.6918  -22.6848  -22.6780  -22.6712  -22.6646  -22.6580  
   7.82000  -22.7238  -22.7163  -22.7089  -22.7017  -22.6946  -22.6876  -22.6807  -22.6739  -22.6672  -22.6606  -22.6542  
   7.83000  -22.7192  -22.7118  -22.7045  -22.6973  -22.6903  -22.6833  -22.6765  -22.6698  -22.6631  -22.6566  -22.6502  
   7.84000  -22.7145  -22.7072  -22.7000  -22.6929  -22.6859  -22.6790  -22.6723  -22.6656  -22.6590  -22.6526  -22.6462  
   7.85000  -22.7098  -22.7026  -22.6954  -22.6884  -22.6815  -22.6747  -22.6680  -22.6614  -22.6548  -22.6484  -22.6421  
   7.86000  -22.7051  -22.6979  -22.6908  -22.6839  -22.6770  -22.6703  -22.6636  -22.6571  -22.6506  -22.6443  -22.6380  
   7.87000  -22.7003  -22.6931  -22.6861  -22.6792  -22.6725  -22.6658  -22.6592  -22.6527  -22.6463  -22.6400  -22.6338  
   7.88000  -22.6954  -22.6884  -22.6814  -22.6746  -22.6679  -22.6613  -22.6547  -22.6483  -22.6420  -22.6357  -22.6296  
   7.89000  -22.6905  -22.6835  -22.6766  -22.6699  -22.6632  -22.6567  -22.6502  -22.6439  -22.6376  -22.6314  -22.6253  
   7.90000  -22.6855  -22.6786  -22.6718  -22.6651  -22.6585  -22.6520  -22.6456  -22.6393  -22.6331  -22.6270  -22.6210  
   7.91000  -22.6810  -22.6742  -22.6674  -22.6608  -22.6543  -22.6479  -22.6415  -22.6353  -22.6291  -22.6231  -22.6171  
   7.92000  -22.6765  -22.6697  -22.6630  -22.6565  -22.6500  -22.6436  -22.6374  -22.6312  -22.6251  -22.6191  -22.6131  
   7.93000  -22.6719  -22.6652  -22.6586  -22.6521  -22.6457  -22.6394  -22.6332  -22.6270  -22.6210  -22.6150  -22.6091  
   7.94000  -22.6672  -22.6606  -22.6541  -22.6476  -22.6413  -22.6350  -22.6289  -22.6228  -22.6168  -22.6109  -22.6051  
   7.95000  -22.6625  -22.6560  -22.6495  -22.6431  -22.6369  -22.6307  -22.6246  -22.6185  -22.6126  -22.6067  -22.6010  
   7.96000  -22.6578  -22.6513  -22.6449  -22.6386  -22.6323  -22.6262  -22.6202  -22.6142  -22.6083  -22.6025  -22.5968  
   7.97000  -22.6530  -22.6465  -22.6402  -22.6339  -22.6278  -22.6217  -22.6157  -22.6098  -22.6040  -22.5982  -22.5926  
   7.98000  -22.6481  -22.6417  -22.6355  -22.6293  -22.6232  -22.6172  -22.6112  -22.6054  -22.5996  -22.5939  -22.5883  
   7.99000  -22.6432  -22.6369  -22.6307  -22.6245  -22.6185  -22.6125  -22.6067  -22.6009  -22.5952  -22.5895  -22.5840  
   8.00000  -22.6382  -22.6319  -22.6258  -22.6197  -22.6138  -22.6079  -22.6021  -22.5963  -22.5907  -22.5851  -22.5796  
   8.01000  -22.6338  -22.6276  -22.6215  -22.6155  -22.6096  -22.6038  -22.5980  -22.5924  -22.5868  -22.5812  -22.5758  
   8.02000  -22.6293  -22.6232  -22.6172  -22.6113  -22.6054  -22.5997  -22.5940  -22.5883  -22.5828  -22.5773  -22.5719  
   8.03000  -22.6248  -22.6188  -22.6128  -22.6070  -22.6012  -22.5955  -22.5898  -22.5843  -22.5788  -22.5733  -22.5680  
   8.04000  -22.6202  -22.6143  -22.6084  -22.6026  -22.5969  -22.5912  -22.5856  -22.5801  -22.5747  -22.5693  -22.5640  
   8.05000  -22.6156  -22.6097  -22.6039  -22.5981  -22.5925  -22.5869  -22.5814  -22.5759  -22.5705  -22.5652  -22.5600  
   8.06000  -22.6109  -22.6051  -22.5993  -22.5937  -22.5881  -22.5825  -22.5771  -22.5717  -22.5664  -22.5611  -22.5559  
   8.07000  -22.6062  -22.6004  -22.5947  -22.5891  -22.5836  -22.5781  -22.5727  -22.5674  -22.5621  -22.5569  -22.5518  
   8.08000  -22.6014  -22.5957  -22.5901  -22.5845  -22.5790  -22.5736  -22.5683  -22.5630  -22.5578  -22.5527  -22.5476  
   8.09000  -22.5965  -22.5909  -22.5853  -22.5798  -22.5744  -22.5691  -22.5638  -22.5586  -22.5534  -22.5484  -22.5433  
   8.10000  -22.5916  -22.5860  -22.5805  -22.5751  -22.5698  -22.5645  -22.5593  -22.5541  -22.5490  -22.5440  -22.5390  
   8.11000  -22.5883  -22.5828  -22.5774  -22.5720  -22.5667  -22.5614  -22.5563  -22.5511  -22.5461  -22.5411  -22.5361  
   8.12000  -22.5850  -22.5795  -22.5741  -22.5688  -22.5635  -22.5583  -22.5532  -22.5481  -22.5431  -22.5381  -22.5332  
   8.13000  -22.5816  -22.5762  -22.5708  -22.5656  -22.5603  -22.5552  -22.5501  -22.5450  -22.5400  -22.5351  -22.5302  
   8.14000  -22.5782  -22.5728  -22.5675  -22.5623  -22.5571  -22.5519  -22.5469  -22.5419  -22.5369  -22.5320  -22.5272  
   8.15000  -22.5747  -22.5694  -22.5641  -22.5589  -22.5538  -22.5487  -22.5437  -22.5387  -22.5338  -22.5289  -22.5241  
   8.16000  -22.5712  -22.5659  -22.5607  -22.5555  -22.5504  -22.5454  -22.5404  -22.5355  -22.5306  -22.5258  -22.5210  
   8.17000  -22.5676  -22.5624  -22.5572  -22.5521  -22.5470  -22.5420  -22.5371  -22.5322  -22.5273  -22.5225  -22.5178  
   8.18000  -22.5640  -22.5588  -22.5537  -22.5486  -22.5436  -22.5386  -22.5337  -22.5288  -22.5240  -22.5193  -22.5146  
   8.19000  -22.5603  -22.5552  -22.5501  -22.5450  -22.5400  -22.5351  -22.5303  -22.5254  -22.5207  -22.5160  -22.5113  
   8.20000  -22.5566  -22.5515  -22.5464  -22.5414  -22.5365  -22.5316  -22.5268  -22.5220  -22.5173  -22.5126  -22.5080  
   8.21000  -22.5525  -22.5474  -22.5424  -22.5375  -22.5326  -22.5278  -22.5230  -22.5182  -22.5136  -22.5089  -22.5043  
   8.22000  -22.5484  -22.5433  -22.5384  -22.5335  -22.5286  -22.5238  -22.5191  -22.5144  -22.5098  -22.5052  -22.5007  
   8.23000  -22.5442  -22.5392  -22.5343  -22.5294  -22.5246  -22.5199  -22.5152  -22.5105  -22.5060  -22.5014  -22.4969  
   8.24000  -22.5399  -22.5350  -22.5301  -22.5253  -22.5206  -22.5159  -22.5112  -22.5066  -22.5021  -22.4976  -22.4931  
   8.25000  -22.5356  -22.5307  -22.5259  -22.5212  -22.5165  -22.5118  -22.5072  -22.5026  -22.4981  -22.4937  -22.4892  
   8.26000  -22.5312  -22.5264  -22.5217  -22.5170  -22.5123  -22.5077  -22.5031  -22.4986  -22.4941  -22.4897  -22.4853  
   8.27000  -22.5268  -22.5221  -22.5173  -22.5127  -22.5081  -22.5035  -22.4990  -22.4945  -22.4901  -22.4857  -22.4814  
   8.28000  -22.5223  -22.5176  -22.5130  -22.5083  -22.5038  -22.4993  -22.4948  -22.4904  -22.4860  -22.4816  -22.4774  
   8.29000  -22.5178  -22.5131  -22.5085  -22.5040  -22.4994  -22.4950  -22.4905  -22.4862  -22.4818  -22.4775  -22.4733  
   8.30000  -22.5132  -22.5086  -22.5040  -22.4995  -22.4950  -22.4906  -22.4862  -22.4819  -22.4776  -22.4734  -22.4691  
   8.31000  -22.5096  -22.5050  -22.5005  -22.4960  -22.4916  -22.4872  -22.4828  -22.4785  -22.4743  -22.4700  -22.4659  
   8.32000  -22.5059  -22.5013  -22.4968  -22.4924  -22.4880  -22.4837  -22.4793  -22.4751  -22.4708  -22.4667  -22.4625  
   8.33000  -22.5021  -22.4976  -22.4932  -22.4888  -22.4844  -22.4801  -22.4758  -22.4716  -22.4674  -22.4632  -22.4591  
   8.34000  -22.4983  -22.4938  -22.4894  -22.4851  -22.4808  -22.4765  -22.4722  -22.4680  -22.4639  -22.4598  -22.4557  
   8.35000  -22.4944  -22.4900  -22.4857  -22.4813  -22.4770  -22.4728  -22.4686  -22.4644  -22.4603  -22.4562  -22.4522  
   8.36000  -22.4905  -22.4862  -22.4818  -22.4775  -22.4733  -22.4691  -22.4649  -22.4608  -22.4567  -22.4527  -22.4487  
   8.37000  -22.4866  -22.4822  -22.4779  -22.4737  -22.4695  -22.4653  -22.4612  -22.4571  -22.4530  -22.4490  -22.4451  
   8.38000  -22.4825  -22.4782  -22.4740  -22.4698  -22.4656  -22.4615  -22.4574  -22.4533  -22.4493  -22.4453  -22.4414  
   8.39000  -22.4784  -22.4742  -22.4700  -22.4658  -22.4617  -22.4576  -22.4535  -22.4495  -22.4456  -22.4416  -22.4377  
   8.40000  -22.4743  -22.4701  -22.4659  -22.4618  -22.4577  -22.4537  -22.4496  -22.4457  -22.4417  -22.4378  -22.4339  
   8.41000  -22.4712  -22.4670  -22.4629  -22.4588  -22.4547  -22.4507  -22.4467  -22.4428  -22.4388  -22.4350  -22.4311  
   8.42000  -22.4680  -22.4639  -22.4598  -22.4557  -22.4517  -22.4477  -22.4437  -22.4398  -22.4359  -22.4321  -22.4282  
   8.43000  -22.4648  -22.4607  -22.4566  -22.4526  -22.4486  -22.4446  -22.4407  -22.4368  -22.4329  -22.4291  -22.4253  
   8.44000  -22.4615  -22.4575  -22.4534  -22.4494  -22.4454  -22.4415  -22.4376  -22.4337  -22.4299  -22.4261  -22.4224  
   8.45000  -22.4582  -22.4542  -22.4502  -22.4462  -22.4423  -22.4383  -22.4345  -22.4306  -22.4268  -22.4231  -22.4193  
   8.46000  -22.4549  -22.4508  -22.4469  -22.4429  -22.4390  -22.4351  -22.4313  -22.4275  -22.4237  -22.4200  -22.4163  
   8.47000  -22.4514  -22.4475  -22.4435  -22.4396  -22.4357  -22.4319  -22.4281  -22.4243  -22.4205  -22.4168  -22.4132  
   8.48000  -22.4480  -22.4440  -22.4401  -22.4362  -22.4324  -22.4286  -22.4248  -22.4210  -22.4173  -22.4136  -22.4100  
   8.49000  -22.4445  -22.4405  -22.4367  -22.4328  -22.4290  -22.4252  -22.4215  -22.4177  -22.4141  -22.4104  -22.4068  
   8.50000  -22.4409  -22.4370  -22.4331  -22.4293  -22.4255  -22.4218  -22.4181  -22.4144  -22.4107  -22.4071  -22.4035  
   8.51000  -22.4384  -22.4345  -22.4307  -22.4269  -22.4231  -22.4194  -22.4157  -22.4120  -22.4084  -22.4048  -22.4012  
   8.52000  -22.4358  -22.4320  -22.4282  -22.4244  -22.4207  -22.4170  -22.4133  -22.4096  -22.4060  -22.4025  -22.3989  
   8.53000  -22.4332  -22.4294  -22.4256  -22.4219  -22.4182  -22.4145  -22.4108  -22.4072  -22.4036  -22.4001  -22.3965  
   8.54000  -22.4306  -22.4268  -22.4230  -22.4193  -22.4156  -22.4120  -22.4083  -22.4047  -22.4012  -22.3976  -22.3941  
   8.55000  -22.4279  -22.4241  -22.4204  -22.4167  -22.4130  -22.4094  -22.4058  -22.4022  -22.3987  -22.3952  -22.3917  
   8.56000  -22.4251  -22.4214  -22.4177  -22.4140  -22.4104  -22.4068  -22.4032  -22.3997  -22.3961  -22.3927  -22.3892  
   8.57000  -22.4223  -22.4186  -22.4150  -22.4113  -22.4077  -22.4041  -22.4006  -22.3971  -22.3936  -22.3901  -22.3867  
   8.58000  -22.4195  -22.4158  -22.4122  -22.4086  -22.4050  -22.4014  -22.3979  -22.3944  -22.3909  -22.3875  -22.3841  
   8.59000  -22.4166  -22.4130  -22.4094  -22.4058  -22.4022  -22.3987  -22.3952  -22.3917  -22.3883  -22.3848  -22.3815  
   8.60000  -22.4137  -22.4101  -22.4065  -22.4029  -22.3994  -22.3959  -22.3924  -22.3890  -22.3855  -22.3822  -22.3788  
   8.61000  -22.4118  -22.4082  -22.4046  -22.4011  -22.3976  -22.3941  -22.3906  -22.3872  -22.3838  -22.3804  -22.3771  
   8.62000  -22.4099  -22.4063  -22.4027  -22.3992  -22.3957  -22.3922  -22.3888  -22.3854  -22.3820  -22.3787  -22.3753  
   8.63000  -22.4079  -22.4043  -22.4008  -22.3973  -22.3938  -22.3904  -22.3870  -22.3836  -22.3802  -22.3769  -22.3735  
   8.64000  -22.4059  -22.4023  -22.3988  -22.3953  -22.3919  -22.3885  -22.3851  -22.3817  -22.3783  -22.3750  -22.3717  
   8.65000  -22.4038  -22.4003  -22.3968  -22.3934  -22.3899  -22.3865  -22.3831  -22.3798  -22.3765  -22.3731  -22.3699  
   8.66000  -22.4017  -22.3982  -22.3948  -22.3913  -22.3879  -22.3845  -22.3812  -22.3778  -22.3745  -22.3712  -22.3680  
   8.67000  -22.3996  -22.3961  -22.3927  -22.3893  -22.3859  -22.3825  -22.3792  -22.3759  -22.3726  -22.3693  -22.3661  
   8.68000  -22.3974  -22.3940  -22.3906  -22.3872  -22.3838  -22.3805  -22.3771  -22.3738  -22.3706  -22.3673  -22.3641  
   8.69000  -22.3952  -22.3918  -22.3884  -22.3850  -22.3817  -22.3784  -22.3751  -22.3718  -22.3685  -22.3653  -22.3621  
   8.70000  -22.3930  -22.3896  -22.3862  -22.3829  -22.3795  -22.3762  -22.3729  -22.3697  -22.3665  -22.3633  -22.3601  
   8.71000  -22.3917  -22.3883  -22.3849  -22.3816  -22.3783  -22.3750  -22.3717  -22.3685  -22.3653  -22.3621  -22.3589  
   8.72000  -22.3904  -22.3870  -22.3836  -22.3803  -22.3770  -22.3737  -22.3705  -22.3673  -22.3641  -22.3609  -22.3577  
   8.73000  -22.3890  -22.3857  -22.3823  -22.3790  -22.3757  -22.3725  -22.3692  -22.3660  -22.3628  -22.3597  -22.3565  
   8.74000  -22.3876  -22.3843  -22.3810  -22.3777  -22.3744  -22.3712  -22.3679  -22.3647  -22.3616  -22.3584  -22.3553  
   8.75000  -22.3862  -22.3829  -22.3796  -22.3763  -22.3731  -22.3698  -22.3666  -22.3634  -22.3603  -22.3572  -22.3540  
   8.76000  -22.3848  -22.3815  -22.3782  -22.3749  -22.3717  -22.3685  -22.3653  -22.3621  -22.3590  -22.3559  -22.3528  
   8.77000  -22.3833  -22.3800  -22.3768  -22.3735  -22.3703  -22.3671  -22.3639  -22.3608  -22.3576  -22.3545  -22.3515  
   8.78000  -22.3818  -22.3785  -22.3753  -22.3721  -22.3689  -22.3657  -22.3625  -22.3594  -22.3563  -22.3532  -22.3501  
   8.79000  -22.3803  -22.3770  -22.3738  -22.3706  -22.3674  -22.3642  -22.3611  -22.3580  -22.3549  -22.3518  -22.3488  
   8.80000  -22.3787  -22.3755  -22.3723  -22.3691  -22.3659  -22.3628  -22.3596  -22.3565  -22.3535  -22.3504  -22.3474  
   8.81000  -22.3782  -22.3750  -22.3718  -22.3686  -22.3655  -22.3623  -22.3592  -22.3561  -22.3530  -22.3500  -22.3470  
   8.82000  -22.3777  -22.3745  -22.3713  -22.3681  -22.3650  -22.3619  -22.3588  -22.3557  -22.3526  -22.3496  -22.3466  
   8.83000  -22.3772  -22.3740  -22.3708  -22.3676  -22.3645  -22.3614  -22.3583  -22.3552  -22.3522  -22.3491  -22.3461  
   8.84000  -22.3767  -22.3735  -22.3703  -22.3671  -22.3640  -22.3609  -22.3578  -22.3548  -22.3517  -22.3487  -22.3457  
   8.85000  -22.3761  -22.3729  -22.3698  -22.3666  -22.3635  -22.3604  -22.3573  -22.3543  -22.3513  -22.3482  -22.3452  
   8.86000  -22.3756  -22.3724  -22.3692  -22.3661  -22.3630  -22.3599  -22.3568  -22.3538  -22.3508  -22.3478  -22.3448  
   8.87000  -22.3750  -22.3718  -22.3687  -22.3656  -22.3625  -22.3594  -22.3563  -22.3533  -22.3503  -22.3473  -22.3443  
   8.88000  -22.3704  -22.3673  -22.3641  -22.3610  -22.3579  -22.3549  -22.3518  -22.3488  -22.3458  -22.3428  -22.3398  
   8.89000  -22.3654  -22.3623  -22.3591  -22.3560  -22.3529  -22.3499  -22.3468  -22.3438  -22.3408  -22.3378  -22.3348  
   8.90000  -22.3604  -22.3573  -22.3541  -22.3510  -22.3479  -22.3449  -22.3418  -22.3388  -22.3358  -22.3328  -22.3298  
   8.91000  -22.3554  -22.3523  -22.3491  -22.3460  -22.3429  -22.3399  -22.3368  -22.3338  -22.3308  -22.3278  -22.3248  
   8.92000  -22.3504  -22.3473  -22.3441  -22.3410  -22.3379  -22.3349  -22.3318  -22.3288  -22.3258  -22.3228  -22.3198  
   8.93000  -22.3454  -22.3423  -22.3391  -22.3360  -22.3329  -22.3299  -22.3268  -22.3238  -22.3208  -22.3178  -22.3148  
   8.94000  -22.3404  -22.3373  -22.3341  -22.3310  -22.3279  -22.3249  -22.3218  -22.3188  -22.3158  -22.3128  -22.3098  
   8.95000  -22.3354  -22.3323  -22.3291  -22.3260  -22.3229  -22.3199  -22.3168  -22.3138  -22.3108  -22.3078  -22.3048  
   8.96000  -22.3304  -22.3273  -22.3241  -22.3210  -22.3179  -22.3149  -22.3118  -22.3088  -22.3058  -22.3028  -22.2998  
   8.97000  -22.3254  -22.3223  -22.3191  -22.3160  -22.3129  -22.3099  -22.3068  -22.3038  -22.3008  -22.2978  -22.2948  
   8.98000  -22.3204  -22.3173  -22.3141  -22.3110  -22.3079  -22.3049  -22.3018  -22.2988  -22.2958  -22.2928  -22.2898  
   8.99000  -22.3154  -22.3123  -22.3091  -22.3060  -22.3029  -22.2999  -22.2968  -22.2938  -22.2908  -22.2878  -22.2848  
